date,open,high,low,close,volume
2023-10-05,123.96000,124.93000,122.80000,123.75000,466700
2023-10-06,123.61000,126.69000,123.39000,126.41000,491700
2023-10-09,125.82000,127.22000,125.69000,126.94000,275700
2023-10-10,127.24000,128.61000,126.51000,126.54000,322000
2023-10-11,127.53000,127.70000,126.65000,127.53000,212900
2023-10-12,127.22000,127.40000,125.06000,125.42000,189300
2023-10-13,126.00000,126.67000,125.40000,125.97000,324900
2023-10-16,127.36000,127.43000,126.17000,126.71000,275200
2023-10-17,126.01000,128.34000,126.01000,127.48000,314400
2023-10-18,126.87000,127.67000,126.28000,126.78000,287300
2023-10-19,126.08000,127.47000,125.39000,125.73000,443900
2023-10-20,125.93000,126.48000,121.93000,122.22000,446500
2023-10-23,121.72000,123.16000,121.21000,121.50000,379000
2023-10-24,122.13000,123.77000,121.72000,123.34000,312100
2023-10-25,122.43000,123.78000,121.89000,122.37000,431300
2023-10-26,121.26000,125.39000,121.26000,123.43000,576000
2023-10-27,123.47000,123.84000,120.36000,121.17000,364000
2023-10-30,121.92000,122.32000,120.85000,122.17000,283100
2023-10-31,122.51000,122.89000,121.83000,122.27000,422900
2023-11-01,122.11000,123.43000,121.61000,122.93000,360500
2023-11-02,123.72000,124.29000,122.98000,123.58000,384300
2023-11-03,124.43000,125.97000,124.43000,125.35000,278000
2023-11-06,125.27000,125.73000,124.75000,125.19000,173500
2023-11-07,124.62000,124.99000,124.17000,124.55000,205000
2023-11-08,124.88000,125.49000,124.41000,125.12000,175800
2023-11-09,125.69000,125.69000,124.07000,124.39000,118600
2023-11-10,124.24000,125.79000,123.89000,125.72000,195600
2023-11-13,125.39000,125.48000,124.37000,124.53000,183100
2023-11-14,125.95000,127.86000,125.31000,127.85000,267400
2023-11-15,127.82000,128.80000,127.35000,127.71000,388600
2023-11-16,127.65000,128.62000,126.84000,127.55000,217000
2023-11-17,128.56000,129.08000,127.61000,127.93000,162700
2023-11-20,127.45000,127.65000,126.43000,127.32000,213900
2023-11-21,127.46000,128.30000,127.20000,127.91000,160600
2023-11-22,128.45000,129.20000,127.36000,128.57001,174800
2023-11-24,128.97000,128.97000,128.10001,128.53000,65900
2023-11-27,127.82000,128.30000,126.85000,127.00000,367500
2023-11-28,127.00000,127.01000,125.49000,125.61000,218000
2023-11-29,125.64000,126.40000,124.92000,125.37000,331800
2023-11-30,125.45000,127.13000,124.81000,126.89000,301000
2023-12-01,126.42000,128.53999,126.42000,128.10001,218300
2023-12-04,127.45000,128.88000,126.89000,128.42000,192000
2023-12-05,128.25000,128.69000,125.88000,125.99000,178000
2023-12-06,126.39000,127.30000,125.88000,126.37000,179500
2023-12-07,126.24000,127.11000,125.99000,126.49000,254000
2023-12-08,126.36000,127.50000,125.62000,127.32000,265800
2023-12-11,127.26000,127.68000,126.34000,127.57000,338000
2023-12-12,127.65000,128.10001,126.68000,127.48000,210300
2023-12-13,127.18000,128.99001,127.18000,128.59000,425000
2023-12-14,129.08000,130.00999,126.88000,127.40000,412900
2023-12-15,127.16000,128.58000,125.97000,125.98000,713000
2023-12-18,126.71000,127.21000,125.88000,127.05000,240500
2023-12-19,127.71000,128.13000,126.03000,126.23000,659100
2023-12-20,126.02000,126.94000,125.46000,125.57000,346400
2023-12-21,126.24000,126.24000,124.85000,125.91000,421900
2023-12-22,126.40000,127.04000,126.12000,126.27000,312200
2023-12-26,126.14000,126.87000,125.59000,125.83000,274700
2023-12-27,126.12000,126.47000,125.03000,125.28000,283100
2023-12-28,124.98000,125.80000,124.40000,125.20000,343600
2023-12-29,125.19000,125.36000,123.56000,123.62000,313500
2024-01-02,122.61000,124.10000,122.29000,122.88000,313100
2024-01-03,125.15000,127.26000,123.15000,125.36000,531700
2024-01-04,125.18000,125.92000,124.13000,124.22000,353300
2024-01-05,123.78000,124.37000,122.99000,124.20000,423000
2024-01-08,124.07000,125.16000,122.37000,124.35000,352400
2024-01-09,123.71000,124.64000,122.97000,124.63000,250300
2024-01-10,124.46000,125.42000,124.23000,125.19000,279600
2024-01-11,125.38000,126.97000,124.94000,126.84000,323100
2024-01-12,127.89000,127.97000,125.92000,126.43000,231700
2024-01-16,125.88000,126.82000,125.51000,126.81000,257500
2024-01-17,125.94000,127.27000,125.89000,126.69000,336900
2024-01-18,127.32000,130.00999,126.31000,129.14000,444200
2024-01-19,129.71001,131.46001,128.53999,130.80000,418000
2024-01-22,130.89999,131.81000,130.56000,131.19000,266200
2024-01-23,131.80000,131.85001,130.33000,131.83000,217800
2024-01-24,132.12000,132.28999,130.53999,130.78000,294400
2024-01-25,132.03000,132.38000,130.38000,131.25000,332300
2024-01-26,131.67999,132.59000,131.39999,131.70000,219900
2024-01-29,131.05000,132.59000,130.49001,132.25000,187800
2024-01-30,132.03000,133.09000,131.63000,132.25000,228400
2024-01-31,132.37000,132.77000,129.16000,129.88000,537500
2024-02-01,130.46001,131.11000,129.61000,130.50000,298800
2024-02-02,129.96001,130.71001,128.69000,130.10001,344800
2024-02-05,129.13000,131.45000,128.05000,130.64999,319500
2024-02-06,130.48000,131.39999,129.30000,131.13000,369700
2024-02-07,131.41000,132.42000,129.37000,131.80000,393000
2024-02-08,131.64000,134.84000,131.53999,132.12000,620700
2024-02-09,132.11000,139.21001,131.50999,138.96001,650900
2024-02-12,139.16000,140.47000,137.50999,137.61000,491300
2024-02-13,136.69000,137.33000,134.98000,135.92999,275900
2024-02-14,136.25999,137.46001,135.17000,137.17000,335000
2024-02-15,137.17000,137.81000,134.57001,135.03999,471400
2024-02-16,135.37000,138.00000,135.03999,137.50000,453900
2024-02-20,137.14000,140.14000,136.95000,139.69000,373000
2024-02-21,139.08000,140.11000,138.99001,140.00000,276300
2024-02-22,140.47000,142.42000,140.07001,141.47000,295700
2024-02-23,141.97000,142.05000,140.60001,141.36000,190300
2024-02-26,141.50000,142.06000,140.80000,141.92000,199200
2024-02-27,141.92000,142.17999,139.80000,140.31000,244600
2024-02-28,139.64999,141.24001,139.33000,140.41000,189600
2024-02-29,140.63000,141.63000,139.83000,140.46001,250600
2024-03-01,139.88000,140.78999,139.56000,140.28999,151400
2024-03-04,140.69000,142.12000,140.56000,141.96001,260300
2024-03-05,142.27000,143.21001,141.74001,142.52000,190200
2024-03-06,142.92999,143.64000,142.48000,143.07001,184000
2024-03-07,144.50000,145.14000,143.84000,144.64999,250100
2024-03-08,144.71001,145.07001,142.97000,143.09000,185200
2024-03-11,142.78999,143.38000,141.98000,142.74001,226700
2024-03-12,142.80000,142.85001,141.48000,142.41000,242200
2024-03-13,143.00000,143.00000,140.92999,141.16000,336800
2024-03-14,141.36000,141.62000,140.36000,140.92999,235200
2024-03-15,140.03999,142.41000,139.74001,141.00000,599500
2024-03-18,140.92999,141.30000,138.92999,139.25999,299700
2024-03-19,138.88000,140.32001,138.88000,139.50999,253000
2024-03-20,139.63000,140.07001,139.14000,139.97000,220000
2024-03-21,140.31000,141.60001,139.30000,141.14000,255800
2024-03-22,142.00999,142.45000,141.05000,141.59000,276000
2024-03-25,141.20000,144.05000,141.17000,142.96001,316300
2024-03-26,142.83000,144.31000,142.62000,143.20000,314200
2024-03-27,143.67000,145.14999,143.67000,144.66000,218200
2024-03-28,144.82001,145.35001,143.64999,143.89000,247800
2024-04-01,143.78999,143.78999,142.12000,142.28999,204400
2024-04-02,141.84000,141.84000,140.39000,140.63000,202600
2024-04-03,140.67000,141.19000,139.87000,140.88000,258700
2024-04-04,141.83000,142.75000,140.97000,141.75000,403600
2024-04-05,141.38000,142.75999,140.95000,141.73000,288300
2024-04-08,141.67000,142.38000,140.39000,140.50999,312500
2024-04-09,140.42000,141.10001,139.36000,140.31000,242600
2024-04-10,138.98000,140.22000,138.45000,139.39999,200700
2024-04-11,139.25999,140.03999,138.45000,139.13000,265300
2024-04-12,138.17000,138.95000,135.96001,137.20000,299200
2024-04-15,138.61000,139.81000,137.83000,138.20000,319600
2024-04-16,137.78999,139.39000,137.36000,138.59000,281700
2024-04-17,138.88000,139.48000,138.35001,138.39999,565400
2024-04-18,138.39000,139.44000,138.22000,139.11000,246600
2024-04-19,139.06000,139.92000,138.77000,139.34000,276600
2024-04-22,139.55000,141.14999,139.25000,140.32001,298800
2024-04-23,139.77000,141.16000,139.52000,140.14999,417200
2024-04-24,139.95000,140.89999,139.64000,140.00999,559200
2024-04-25,139.84000,141.25000,138.92000,140.17999,694400
2024-04-26,142.00000,148.50999,141.89999,143.33000,489500
2024-04-29,144.89999,148.02000,144.37000,146.38000,676700
2024-04-30,145.74001,146.10001,144.06000,144.38000,585100
2024-05-01,144.99001,147.21001,144.58000,145.38000,359600
2024-05-02,145.75999,146.73000,145.28999,145.92000,356500
2024-05-03,147.11000,147.13000,144.84000,146.81000,303300
2024-05-06,147.75999,149.08000,147.16000,149.03999,260200
2024-05-07,148.32001,150.38000,148.32001,149.72000,392900
2024-05-08,149.72000,150.87000,149.48000,150.78999,223500
2024-05-09,151.00000,151.73000,148.63000,149.08000,299100
2024-05-10,148.95000,149.00000,148.09000,148.49001,186300
2024-05-13,148.53000,149.48000,146.86000,147.87000,167500
2024-05-14,148.30000,148.31000,147.47000,147.89999,137600
2024-05-15,147.96001,148.34000,146.77000,147.28000,211100
2024-05-16,147.37000,147.89999,146.42999,147.53999,235500
2024-05-17,147.85001,148.17000,147.13000,147.67000,169500
2024-05-20,147.59000,148.41000,147.03999,148.17000,163400
2024-05-21,147.94000,148.67999,147.09000,148.59000,280400
2024-05-22,148.07001,148.83000,147.47000,148.78999,283300
2024-05-23,148.66000,148.95000,147.56000,147.72000,171700
2024-05-24,148.48000,148.83000,147.36000,148.09000,162300
2024-05-28,147.62000,147.78000,145.82001,146.71001,318400
2024-05-29,145.64999,146.70000,144.50999,144.84000,229700
2024-05-30,145.13000,146.98000,145.00000,146.14000,328100
2024-05-31,146.09000,147.83000,145.92000,147.69000,358900
2024-06-03,148.50000,148.50000,146.28000,148.16000,266200
2024-06-04,147.64999,148.39000,146.70000,148.19000,287900
2024-06-05,147.72000,148.20000,147.08000,147.92000,229200
2024-06-06,148.00999,148.00999,145.39999,145.96001,197600
2024-06-07,145.77000,146.33000,145.45000,145.55000,179100
2024-06-10,144.83000,145.81000,143.99001,145.59000,125800
2024-06-11,144.91000,145.74001,144.35001,145.50000,147700
2024-06-12,146.24001,146.31000,144.07001,145.83000,221300
2024-06-13,145.89000,146.53000,145.02000,145.83000,232400
2024-06-14,145.09000,145.38000,143.67999,144.75000,141500
2024-06-17,144.87000,146.67999,144.57001,146.33000,303800
2024-06-18,146.48000,147.69000,146.47000,146.69000,219900
2024-06-20,146.66000,147.53000,145.67000,145.81000,199900
2024-06-21,145.87000,147.14000,145.31000,146.85001,444100
2024-06-24,147.22000,148.23000,146.67000,146.72000,182900
2024-06-25,146.78999,146.80000,144.50000,144.86000,194500
2024-06-26,144.25000,144.78999,142.96001,143.71001,192400
2024-06-27,143.87000,143.88000,142.27000,143.87000,377300
2024-06-28,143.78000,144.32001,140.09000,140.81000,435100
2024-07-01,141.38000,141.48000,138.39000,138.53999,306400
2024-07-02,138.48000,140.50000,137.75999,140.39999,259400
2024-07-03,140.88000,141.39999,140.57001,141.22000,143300
2024-07-05,140.99001,141.44000,139.73000,140.89999,207000
2024-07-08,141.64999,142.50000,141.50000,141.50999,249300
2024-07-09,140.86000,141.27000,139.75000,140.03999,238400
2024-07-10,140.75000,141.63000,140.57001,141.28999,142000
2024-07-11,141.20000,143.30000,140.75000,142.09000,244500
2024-07-12,143.41000,145.49001,143.41000,144.59000,263900
2024-07-15,144.75999,145.69000,143.14000,143.42999,319900
2024-07-16,143.85001,145.30000,143.85001,144.56000,178800
2024-07-17,144.34000,145.77000,144.34000,144.86000,242300
2024-07-18,144.61000,147.25000,144.60001,146.28000,434200
2024-07-19,146.59000,146.59000,144.66000,145.94000,251200
2024-07-22,145.99001,147.56000,145.25000,147.19000,235700
2024-07-23,147.87000,148.50999,145.67000,146.03999,234500
2024-07-24,146.07001,146.63000,143.89999,144.14000,250600
2024-07-25,142.83000,144.05000,141.22000,141.49001,558100
2024-07-26,143.13000,151.28999,142.35001,146.66000,562800
2024-07-29,146.58000,148.35001,145.17000,147.80000,390900
2024-07-30,147.38000,147.89999,145.41000,145.75000,411000
2024-07-31,146.50000,148.85001,145.41000,146.98000,280600
2024-08-01,146.88000,149.53999,145.42999,147.03000,335300
2024-08-02,146.58000,147.00000,143.75000,145.69000,213500
2024-08-05,143.42999,143.42999,139.48000,140.67999,448500
2024-08-06,141.33000,146.09000,141.11000,144.92999,476000
2024-08-07,146.00999,147.25999,143.47000,143.60001,353600
2024-08-08,144.46001,146.16000,144.46001,145.56000,268600
2024-08-09,145.41000,145.41000,143.47000,143.95000,263200
2024-08-12,143.97000,144.17999,142.77000,143.28999,221100
2024-08-13,143.50999,145.30000,143.10001,144.37000,212000
2024-08-14,144.13000,144.81000,143.49001,143.89999,115700
2024-08-15,145.00000,147.34000,145.00000,147.00999,277500
2024-08-16,146.11000,146.84000,145.61000,146.72000,250600
2024-08-19,146.32001,147.73000,145.92000,146.97000,191200
2024-08-20,146.98000,148.31000,146.98000,148.11000,387200
2024-08-21,148.17000,149.57001,147.46001,149.33000,267300
2024-08-22,149.57001,150.39999,148.67000,148.99001,200400
2024-08-23,149.66000,150.53000,149.44000,150.44000,221400
2024-08-26,150.67999,152.67000,150.14000,150.16000,235500
2024-08-27,150.00999,151.53999,149.84000,151.20000,208300
2024-08-28,150.92999,151.97000,150.92999,151.53999,249000
2024-08-29,152.55000,152.91000,151.21001,152.28000,187100
2024-08-30,152.20000,153.44000,151.64000,153.19000,178500
2024-09-03,152.11000,152.38000,149.73000,150.03999,362400
2024-09-04,149.60001,150.89999,149.60001,150.73000,175800
2024-09-05,151.08000,151.75999,149.95000,150.72000,200600
2024-09-06,150.38000,153.12000,150.38000,152.38000,319100
2024-09-09,152.57001,153.06000,151.44000,151.91000,241500
2024-09-10,151.87000,152.78999,151.44000,151.50999,158100
2024-09-11,150.78999,150.88000,148.63000,150.84000,178000
2024-09-12,150.89000,152.00999,149.97000,151.96001,200400
2024-09-13,152.19000,153.00999,151.89999,152.28000,138600
2024-09-16,153.03999,153.17000,152.07001,152.99001,182900
2024-09-17,154.00000,155.57001,151.87000,153.03000,259900
2024-09-18,153.75999,155.49001,152.71001,153.07001,214200
2024-09-19,155.02000,158.81000,155.02000,156.89999,412400
2024-09-20,156.31000,156.31000,154.48000,155.91000,663300
2024-09-23,156.17000,156.91000,154.74001,155.96001,315800
2024-09-24,156.17999,157.08000,156.03000,156.63000,246200
2024-09-25,157.30000,157.87000,155.87000,157.14000,284100
2024-09-26,157.94000,159.06000,157.70000,158.38000,371600
2024-09-27,158.67999,161.55000,158.25999,159.89000,354300
2024-09-30,159.28999,160.42000,158.92999,160.19000,289800
2024-10-01,160.53999,160.53999,159.05000,159.97000,192200
2024-10-02,159.86000,160.11000,157.96001,158.75000,186900
2024-10-03,157.99001,160.46001,156.64000,158.94000,367000
2024-10-04,159.94000,161.47000,159.33000,160.58000,350500
2024-10-07,159.39000,159.64000,158.00999,158.69000,223300
2024-10-08,158.28000,159.02000,157.10001,158.67000,205900
2024-10-09,158.35001,160.05000,158.12000,159.70000,152600
2024-10-10,158.05000,159.38000,158.05000,159.22000,168500
2024-10-11,160.94000,161.92000,160.35001,161.55000,194400
2024-10-14,164.99001,167.75999,163.46001,167.19000,469700
2024-10-15,167.32001,169.66000,166.49001,168.67999,397300
2024-10-16,168.70000,169.20000,165.92000,166.03999,330000
2024-10-17,166.98000,168.32001,166.52000,167.89000,238200
2024-10-18,169.10001,169.10001,167.78000,168.63000,171500
2024-10-21,168.47000,168.49001,166.30000,166.33000,217900
2024-10-22,165.72000,166.37000,164.81000,165.81000,228500
2024-10-23,166.50999,167.98000,166.16000,167.64999,318100
2024-10-24,168.32001,168.33000,166.14999,166.55000,547300
2024-10-25,168.92000,169.85001,164.61000,168.91000,518900
2024-10-28,169.89999,171.41000,168.75999,169.10001,350000
2024-10-29,169.03000,169.49001,167.64000,168.70000,338100
2024-10-30,168.35001,170.20000,168.12000,169.03000,290300
2024-10-31,169.09000,170.28000,167.86000,167.91000,329900
2024-11-01,168.10001,170.99001,167.62000,169.41000,316300
2024-11-04,169.63000,170.57001,168.17999,168.25999,191800
2024-11-05,167.74001,170.36000,167.74001,170.31000,206200
2024-11-06,175.14999,175.14999,172.14000,173.16000,264100
2024-11-07,174.20000,175.46001,173.53999,174.71001,412300
2024-11-08,174.70000,177.84000,174.49001,175.75999,309200
2024-11-11,176.32001,178.03000,175.89999,176.14999,189100
2024-11-12,176.64999,177.24001,174.95000,175.70000,179800
2024-11-13,175.50000,176.39000,175.05000,175.50000,168400
2024-11-14,175.14999,175.78999,173.91000,174.10001,198200
2024-11-15,172.97000,173.75999,166.17000,166.49001,620500
2024-11-18,166.39000,167.82001,164.33000,166.69000,384400
2024-11-19,166.42000,167.67000,166.20000,166.89999,287600
2024-11-20,167.00000,168.94000,165.64999,168.73000,221800
2024-11-21,168.69000,170.23000,167.74001,169.88000,205100
2024-11-22,170.17999,172.07001,170.17999,171.50999,241600
2024-11-25,172.05000,174.02000,171.74001,172.50000,270100
2024-11-26,172.86000,172.86000,171.16000,172.03999,140300
2024-11-27,172.67000,173.88000,171.52000,171.73000,167200
2024-11-29,172.59000,173.49001,172.09000,172.96001,117300
2024-12-02,172.98000,173.11000,170.84000,172.75999,170900
2024-12-03,173.45000,173.45000,171.09000,172.39999,160100
2024-12-04,171.89000,172.89000,171.03000,172.59000,173400
2024-12-05,172.00999,172.44000,170.53000,171.10001,245000
2024-12-06,171.60001,172.64999,170.85001,171.14999,209200
2024-12-09,171.56000,173.47000,170.23000,170.78999,301700
2024-12-10,170.72000,171.37000,168.19000,170.91000,287000
2024-12-11,171.88000,174.10001,171.75000,172.31000,418600
2024-12-12,171.67000,172.60001,170.78000,171.64000,178300
2024-12-13,170.91000,171.00000,169.82001,170.20000,153200
2024-12-16,170.14000,170.92999,167.59000,167.63000,236100
2024-12-17,166.89999,166.91000,162.84000,163.09000,511900
2024-12-18,163.69000,164.42000,157.91000,158.21001,468600
2024-12-19,158.50999,161.57001,158.23000,158.87000,404700
2024-12-20,158.72000,159.78000,157.47000,158.17999,730200
2024-12-23,157.17000,158.89999,156.96001,158.52000,194900
2024-12-24,158.78000,159.42000,157.92000,159.35001,100500
2024-12-26,158.42000,159.63000,158.42000,158.85001,164500
2024-12-27,157.82001,159.58000,157.61000,158.14999,145000
2024-12-30,157.00000,157.49001,155.00000,156.73000,221700
2024-12-31,157.28000,158.25000,156.17999,157.10001,317100
2025-01-02,157.64999,158.11000,153.45000,154.16000,239400
2025-01-03,154.03999,155.72000,152.87000,155.50000,250700
2025-01-06,154.00000,154.64000,151.44000,152.92000,369000
2025-01-07,155.92000,156.06000,152.60001,153.42999,361200
2025-01-08,152.89000,154.25999,152.09000,154.14999,228600
2025-01-10,152.72000,154.30000,152.58000,153.45000,350800
2025-01-13,152.92999,154.70000,152.92999,153.89000,349300
2025-01-14,154.81000,155.45000,153.48000,154.61000,196900
2025-01-15,156.12000,156.92000,154.17000,155.56000,206100
2025-01-16,155.89000,157.17000,155.31000,156.41000,346300
2025-01-17,156.97000,157.95000,155.67999,156.09000,231900
2025-01-21,156.72000,160.25999,156.72000,159.83000,270900
2025-01-22,159.34000,160.75000,158.34000,159.07001,280000
2025-01-23,158.46001,159.81000,157.73000,159.62000,149800
2025-01-24,159.64999,160.47000,157.22000,158.30000,329600
2025-01-27,158.25000,158.92000,156.64999,158.46001,317000
2025-01-28,157.57001,160.35001,157.57001,158.42000,204300
2025-01-29,158.78000,158.82001,156.62000,157.11000,265800
2025-01-30,157.82001,158.67999,156.58000,158.13000,274200
2025-01-31,157.89999,159.39000,156.75999,157.14999,834100
2025-02-03,154.58000,156.75000,154.14000,155.98000,364600
2025-02-04,156.09000,158.46001,156.09000,157.70000,302400
2025-02-05,158.28000,159.66000,157.78000,158.32001,262600
2025-02-06,159.84000,159.84000,155.37000,156.45000,446600
2025-02-07,157.62000,157.89999,142.03999,143.17999,1221500
2025-02-10,144.25999,144.60001,140.89999,143.28000,621900
2025-02-11,142.27000,143.07001,140.25999,142.28999,377300
2025-02-12,140.97000,143.49001,139.92999,141.70000,423500
2025-02-13,142.75000,143.78000,141.46001,142.77000,665900
2025-02-14,143.69000,145.31000,142.72000,144.78999,512800
2025-02-18,144.78999,147.28999,143.89999,146.89999,489600
2025-02-19,146.14000,147.49001,145.61000,147.03999,331000
2025-02-20,146.97000,147.42000,145.92000,146.67999,283100
2025-02-21,147.03000,147.39000,145.20000,146.34000,451900
2025-02-24,146.17999,147.28999,144.36000,145.61000,353300
2025-02-25,145.88000,148.33000,145.72000,147.71001,336700
2025-02-26,146.64999,149.17999,146.62000,146.64000,735600
2025-02-27,146.23000,147.17999,145.36000,145.63000,262800
2025-02-28,146.16000,146.95000,144.63000,146.75000,348700
2025-03-03,146.97000,148.84000,145.69000,146.59000,394100
2025-03-04,145.53999,147.95000,145.14000,145.94000,490100
2025-03-05,146.05000,148.85001,146.05000,148.44000,445100
2025-03-06,147.56000,151.50000,147.06000,151.14999,471700
2025-03-07,150.50999,153.36000,149.17999,152.78000,480200
2025-03-10,152.07001,154.00000,150.24001,150.57001,391100
2025-03-11,150.34000,150.56000,147.27000,147.89000,304000
2025-03-12,148.24001,148.24001,145.56000,146.03000,299700
2025-03-13,146.41000,147.20000,143.75999,144.75999,238400
2025-03-14,145.23000,146.89000,144.53999,146.66000,223600
2025-03-17,146.50999,148.00000,145.86000,147.84000,225200
2025-03-18,147.39000,147.53000,145.78000,146.30000,219900
2025-03-19,146.34000,147.46001,145.47000,146.98000,279600
2025-03-20,146.13000,147.42000,143.73000,145.20000,332800
2025-03-21,144.00000,145.46001,142.36000,144.82001,601900
2025-03-24,145.75000,148.17999,144.91000,147.99001,463800
2025-03-25,148.49001,149.23000,145.92999,147.21001,325200
2025-03-26,147.05000,148.70000,146.30000,148.56000,630400
2025-03-27,148.28000,149.89000,147.03000,149.35001,312700
2025-03-28,149.28999,150.00000,145.75999,146.92999,239800
2025-03-31,146.58000,149.09000,146.10001,148.38000,372500
2025-04-01,148.88000,150.03000,147.38000,149.10001,240000
2025-04-02,148.00000,151.13000,148.00000,150.53000,247600
2025-04-03,146.75999,150.05000,146.46001,148.67000,352900
2025-04-04,145.22000,147.96001,140.03999,140.17999,531600
2025-04-07,136.34000,142.12000,130.85001,134.64999,629900
2025-04-08,137.38000,139.31000,131.28000,133.66000,473800
2025-04-09,133.17999,144.42000,131.32001,143.75000,491800
2025-04-10,140.00000,143.37000,137.57001,140.75999,309000
2025-04-11,140.87000,144.71001,139.74001,144.11000,203000
2025-04-14,145.80000,146.39999,143.78999,145.78999,249300
2025-04-15,146.10001,146.53999,143.77000,143.94000,250700
2025-04-16,144.06000,145.82001,142.57001,145.00000,307700
2025-04-17,145.39999,145.75999,140.71001,143.83000,390600
2025-04-21,143.30000,144.05000,141.10001,142.58000,291600
2025-04-22,144.50000,146.82001,143.59000,146.02000,217800
2025-04-23,147.87000,149.32001,147.22000,148.05000,537000
2025-04-24,147.92999,152.00000,145.46001,151.46001,424500
2025-04-25,150.85001,153.00000,147.57001,149.06000,220500
2025-04-28,149.80000,151.03000,148.28000,149.70000,235200
2025-04-29,149.75999,151.98000,149.00999,150.30000,359900
2025-04-30,149.07001,149.99001,147.21001,149.95000,556200
2025-05-01,148.45000,150.53000,146.96001,148.28000,445300
2025-05-02,152.99001,153.00000,147.78999,152.00000,431600
2025-05-05,151.42999,153.22000,150.88000,151.48000,267600
2025-05-06,150.25000,152.03999,149.42000,150.92000,312000
2025-05-07,151.88000,153.14999,150.62000,151.39000,318400
2025-05-08,151.78999,154.57001,151.24001,153.36000,302500
2025-05-09,153.91000,154.30000,152.94000,153.32001,231600
2025-05-12,155.78999,156.59000,153.70000,155.52000,352500
2025-05-13,156.31000,156.31000,153.20000,153.64000,339400
2025-05-14,153.62000,153.62000,150.97000,152.48000,350100
2025-05-15,152.35001,155.48000,152.35001,154.95000,278100
2025-05-16,155.17999,157.14999,154.59000,157.00999,278600
2025-05-19,156.36000,158.34000,156.31000,158.08000,185400
2025-05-20,160.25999,160.25999,157.91000,158.53000,388100
2025-05-21,156.86000,157.64999,155.83000,156.45000,319800
2025-05-22,156.36000,157.25999,155.56000,156.64999,278900
2025-05-23,155.12000,156.17999,154.25999,155.94000,260500
2025-05-27,157.03000,158.44000,156.69000,158.16000,352800
2025-05-28,158.16000,158.84000,157.25999,157.39999,364400
2025-05-29,157.83000,158.67000,156.82001,158.33000,232100
2025-05-30,158.24001,158.78000,156.53999,158.39999,335100
2025-06-02,157.53999,159.07001,155.25999,156.91000,349600
2025-06-03,156.17999,157.44000,156.00000,156.25999,397800
2025-06-04,156.49001,156.52000,150.28999,150.41000,831900
2025-06-05,151.58000,153.34000,149.05000,152.49001,482400
2025-06-06,154.37000,154.48000,152.21001,153.31000,264700
2025-06-09,152.71001,153.17999,151.36000,151.60001,388400
2025-06-10,152.16000,153.00000,150.86000,152.53000,323500
2025-06-11,153.00000,153.59000,151.60001,151.92000,380800
2025-06-12,151.41000,154.62000,151.41000,154.35001,337200
2025-06-13,153.00000,153.72000,150.73000,151.16000,361200
2025-06-16,151.24001,152.89999,151.12000,151.69000,346200
2025-06-17,150.66000,151.25999,149.13000,149.45000,379700
2025-06-18,149.12000,150.73000,149.12000,149.70000,383200
2025-06-20,150.28999,150.77000,148.99001,150.30000,570500
2025-06-23,149.49001,153.94000,149.49001,153.78999,356500
2025-06-24,154.57001,154.57001,153.17999,153.87000,246600
2025-06-25,153.86000,154.53000,152.77000,153.92999,264700
2025-06-26,154.53000,155.58000,153.12000,154.48000,658200
2025-06-27,154.66000,156.11000,154.23000,155.82001,643100
2025-06-30,156.03000,156.50000,154.61000,156.42999,315500
2025-07-01,156.42999,159.80000,155.96001,159.00999,338300
2025-07-02,159.02000,160.53000,158.64999,160.32001,293500
2025-07-03,160.60001,161.36000,159.82001,161.03999,235100
2025-07-07,160.95000,162.37000,160.55000,160.96001,313900
2025-07-08,160.89999,162.58000,159.85001,160.05000,342700
2025-07-09,159.92999,160.00999,158.10001,159.73000,252800
2025-07-10,159.19000,160.36000,158.33000,158.33000,361600
2025-07-11,158.56000,158.56000,156.63000,157.89999,292000
2025-07-14,157.14000,158.94000,156.69000,157.56000,276600
2025-07-15,157.74001,158.00000,154.07001,154.16000,254200
2025-07-16,153.92000,155.61000,153.55000,154.98000,261900
2025-07-17,154.74001,156.41000,154.50999,156.03000,397700
2025-07-18,156.85001,157.21001,154.92000,156.38000,243100
2025-07-21,156.42000,156.67000,155.24001,155.45000,205900
2025-07-22,156.11000,159.36000,155.23000,159.17000,449900
2025-07-23,160.07001,161.85001,159.14000,161.66000,450500
2025-07-24,160.96001,164.28000,159.78999,161.82001,431900
2025-07-25,162.05000,163.09000,160.78000,160.99001,296300
2025-07-28,161.20000,161.98000,158.16000,158.70000,308500
2025-07-29,159.05000,159.60001,157.22000,158.82001,388200
2025-07-30,158.80000,158.92999,154.92000,156.78999,580700
2025-07-31,155.78000,157.35001,155.17999,157.14000,679700
2025-08-01,156.97000,158.12000,141.09000,141.35001,1012300
2025-08-04,143.12000,143.12000,137.08000,139.13000,839000
2025-08-05,139.34000,141.07001,137.69000,140.22000,540800
2025-08-06,140.31000,140.75999,137.55000,138.53999,515300
2025-08-07,139.80000,141.49001,138.91000,140.49001,564000
2025-08-08,140.69000,142.05000,140.58000,140.75000,428700
2025-08-11,141.33000,141.62000,139.20000,139.87000,349500
2025-08-12,140.22000,141.09000,139.23000,139.48000,286100
2025-08-13,139.69000,141.44000,139.25000,141.42999,729900
2025-08-14,140.19000,140.19000,136.44000,138.34000,875800
2025-08-15,138.36000,138.95000,137.87000,138.72000,770500
2025-08-18,138.89000,139.57001,137.35001,137.89000,529500
2025-08-19,138.27000,140.52000,138.27000,139.59000,333100
2025-08-20,139.91000,141.25000,139.25999,141.17999,519200
2025-08-21,140.63000,141.89999,140.24001,140.64000,270400
2025-08-22,141.25999,143.33000,141.19000,141.42999,356500
2025-08-25,140.97000,141.61000,138.96001,139.56000,245800
2025-08-26,139.07001,140.16000,138.00999,139.71001,442900
2025-08-27,139.09000,140.57001,139.03000,139.44000,729100
2025-08-28,140.17000,140.17000,137.39999,138.89000,320800
2025-08-29,139.17000,139.87000,138.35001,139.27000,370700
2025-09-02,137.42000,138.53000,136.17000,136.41000,310600
2025-09-03,136.08000,136.17999,134.44000,135.22000,382300
2025-09-04,136.35001,138.48000,135.03999,138.46001,401800
2025-09-05,139.02000,140.82001,137.63000,138.62000,440800
2025-09-08,138.59000,140.00000,137.67999,138.30000,616100
2025-09-09,138.25999,139.48000,135.10001,137.05000,637100
2025-09-10,136.13000,137.46001,134.85001,136.25000,685100
2025-09-11,136.75000,138.28000,135.87000,137.10001,477500
2025-09-12,136.62000,137.05000,135.22000,135.23000,261300
2025-09-15,135.97000,136.17000,134.63000,134.85001,298000
2025-09-16,134.78999,135.42000,134.10001,135.21001,474800
2025-09-17,135.42000,137.07001,134.19000,134.64999,377400
2025-09-18,134.89999,135.50999,134.07001,134.50000,254800
2025-09-19,134.66000,135.10001,133.34000,134.44000,877200
2025-09-22,134.12000,134.94000,132.67000,132.72000,402100
2025-09-23,133.00999,133.95000,131.97000,132.02000,319700
2025-09-24,132.00000,133.31000,131.34000,131.50000,353300
2025-09-25,131.50000,132.52000,130.27000,130.82001,388700
2025-09-26,131.33000,132.42999,130.96001,132.28999,274400
2025-09-29,132.39999,132.67999,131.36000,132.27000,540600
2025-09-30,131.71001,133.75999,131.71001,133.66000,310400
2025-10-01,133.33000,134.36000,132.31000,134.14000,310100
2025-10-02,133.66000,134.39000,132.96001,133.17999,398500
2025-10-03,132.47000,133.58000,132.42999,133.22000,402000
2025-10-06,132.89000,133.20000,131.41000,131.88000,447100
2025-10-07,132.11000,132.50999,129.81000,130.59000,438800
2025-10-08,131.17999,132.00999,130.25999,131.61000,361300
2025-10-09,131.70000,132.84000,130.20000,130.61000,554200
2025-10-10,130.94000,132.00999,129.89000,130.92999,426000
2025-10-13,130.99001,132.35001,130.16000,130.22000,311400
2025-10-14,130.03999,131.06000,129.03999,129.80000,337400
2025-10-15,129.80000,130.39000,127.86000,128.10001,438300
2025-10-16,128.44000,129.50000,127.85000,129.16000,352700
2025-10-17,129.16000,130.10001,128.85001,129.34000,339700
2025-10-20,129.61000,130.09000,128.02000,130.00000,240500
2025-10-21,130.61000,131.77000,129.12000,130.57001,311600
2025-10-22,130.64999,132.11000,129.98000,130.06000,357500
2025-10-23,129.74001,131.53000,129.66000,130.77000,378600
2025-10-24,130.75000,130.89000,128.53999,128.88000,489300
2025-10-27,129.14000,129.89999,128.45000,128.78000,521700
2025-10-28,128.75000,129.11000,127.47000,128.10001,413500
2025-10-29,127.28000,127.50000,123.42000,124.31000,651100
2025-10-30,124.04000,125.52000,123.04000,124.36000,702600
2025-10-31,115.29000,118.10000,103.23000,116.01000,2758200
2025-11-03,116.09000,116.09000,108.29000,113.12000,1661000
2025-11-04,114.36000,116.00000,112.53000,114.18000,1029100
2025-11-05,114.33000,116.04000,112.77000,115.57000,896900
2025-11-06,115.02000,116.96000,113.80000,116.15000,880300
2025-11-07,116.23000,116.92000,114.69000,116.22000,697200
2025-11-10,115.99000,116.77000,114.00000,116.38000,514000
2025-11-11,116.96000,119.51000,116.96000,118.27000,484800
2025-11-12,118.34000,119.67000,117.91000,118.16000,547500
2025-11-13,118.30000,121.88000,118.30000,120.20000,679400
2025-11-14,119.77000,120.69000,118.39000,118.61000,521200
2025-11-17,118.49000,119.49000,117.57000,119.34000,820200
2025-11-18,119.66000,120.11000,118.06000,119.31000,817400
2025-11-19,119.51000,119.51000,117.71000,118.00000,598900
2025-11-20,118.00000,119.61000,117.37000,118.58000,507400
2025-11-21,118.13000,122.24000,118.13000,121.52000,509100
2025-11-24,120.85000,122.40000,120.44000,121.47000,740000
2025-11-25,122.41000,124.08000,122.41000,123.44000,543600
2025-11-26,123.02000,124.52000,123.02000,123.81000,538000
2025-11-28,123.63000,126.08000,123.63000,124.75000,315700
2025-12-01,124.88000,124.96000,123.03000,123.28000,536800
2025-12-02,123.77000,123.86000,120.80000,121.60000,325400
2025-12-03,121.45000,124.26000,121.41000,122.06000,543100
2025-12-04,122.20000,124.08000,121.93000,122.02000,708000
2025-12-05,121.99000,123.51000,120.62000,121.91000,537000
2025-12-08,120.92000,122.10000,119.30000,120.07000,496600
2025-12-09,119.60000,119.85000,115.36000,115.72000,640300
2025-12-10,116.17000,117.80000,115.13000,117.17000,734700
2025-12-11,117.96000,118.67000,117.16000,118.01000,389700
2025-12-12,118.52000,121.64000,117.65000,121.47000,656400
2025-12-15,121.48000,122.46000,120.48000,122.33000,588600
2025-12-16,122.67000,123.85000,119.52000,122.83000,644800
2025-12-17,122.11000,124.60000,120.08000,123.63000,567300
2025-12-18,123.67000,124.12000,122.03000,122.62000,457100
2025-12-19,123.34000,124.33000,121.26000,121.39000,1300400
2025-12-22,121.39000,123.70000,121.07000,122.74000,527800
2025-12-23,122.87000,123.03000,121.32000,122.19000,311700
2025-12-24,122.53000,123.17000,121.76000,122.75000,198000
2025-12-26,122.37000,123.48000,121.72000,123.25000,306000
2025-12-29,123.29000,124.31000,122.32000,123.21000,400200
2025-12-30,122.80000,124.30000,122.42000,122.74000,289800
2025-12-31,121.52000,123.33000,121.35000,121.96000,314300
2026-01-02,121.74000,123.00000,120.78000,122.54000,295100
2026-01-05,121.76000,124.58000,121.76000,123.00000,435700
2026-01-06,122.22000,122.85000,120.11000,120.56000,777200
2026-01-07,120.67000,121.95000,117.61000,120.44000,478500
2026-01-08,119.92000,123.37000,119.52000,122.44000,330000
2026-01-09,122.08000,124.97000,121.46000,123.85000,429100
2026-01-12,124.00000,125.30000,122.98000,125.13000,477300
2026-01-13,125.05000,125.44000,122.54000,123.50000,351900
2026-01-14,124.11000,127.16000,124.11000,126.85000,611700
2026-01-15,127.14000,127.22000,124.52000,125.11000,381000
2026-01-16,124.00000,125.20000,123.24000,124.71000,363400
2026-01-20,124.90000,125.53000,123.44000,123.82000,275100
2026-01-21,124.31000,125.62000,123.90000,125.01000,421000
2026-01-22,125.05000,126.41000,124.06000,124.47000,369700
2026-01-23,124.34000,126.28000,123.87000,126.00000,429500
2026-01-26,126.42000,126.99000,125.10000,126.35000,315400
2026-01-27,124.95000,126.30000,124.17000,124.74000,303100
2026-01-28,124.20000,125.07000,123.25000,123.70000,347800
2026-01-29,124.29000,125.28000,122.59000,123.85000,386000
2026-01-30,122.91000,125.01000,122.66000,124.95000,512700
2026-02-02,124.20000,125.91000,124.20000,124.83000,489100
2026-02-03,123.91000,127.93000,123.69000,124.63000,658700
2026-02-04,125.71000,130.42000,124.70000,129.23000,589400
2026-02-05,127.67000,129.08000,121.96000,123.98000,2144200
2026-02-06,127.53000,135.99001,127.53000,134.31000,1045700
2026-02-09,133.58000,139.57001,133.25000,138.47000,1043400
2026-02-10,137.81000,140.92999,137.81000,140.17000,622100
2026-02-11,139.03000,140.55000,138.60001,140.00999,584300
2026-02-12,140.16000,142.00000,139.39000,140.50999,572700
2026-02-13,140.50999,142.92999,140.41000,142.58000,471900
2026-02-17,139.25999,143.62000,139.25999,141.64999,614700
2026-02-18,141.47000,143.11000,140.84000,141.72000,582000
2026-02-19,141.64999,143.32001,141.03000,143.16000,525500
2026-02-20,143.12000,145.14000,142.00000,145.05000,664500
2026-02-23,143.49001,146.24001,143.13000,145.72000,513500
2026-02-24,146.07001,146.91000,143.85001,144.14000,429800
2026-02-25,142.41000,143.66000,140.42999,142.67999,348900
2026-02-26,143.52000,143.92000,141.00000,141.78999,331300
2026-02-27,141.53000,144.00999,141.00000,143.71001,344600
2026-03-02,143.00000,143.35001,141.62000,142.67000,335000
2026-03-03,140.64000,141.32001,136.92000,139.75999,347300
2026-03-04,139.34000,139.50999,136.00999,137.03999,389000
2026-03-05,136.00000,136.34000,134.41000,134.73000,452300
2026-03-06,134.00000,134.00000,131.00000,132.08000,398500
2026-03-09,130.97000,133.98000,127.53000,133.75000,545700
2026-03-10,133.35001,134.13000,131.39999,132.13000,503100
2026-03-11,131.80000,133.28000,130.03999,132.02000,563800
2026-03-12,131.27000,132.78999,128.64000,128.86000,620600
2026-03-13,130.14999,130.14999,127.05000,128.64999,660600
2026-03-16,129.48000,131.41000,126.00000,129.05000,370700
2026-03-17,129.97000,131.02000,128.24001,129.50000,276700
2026-03-18,124.38000,126.58000,121.42000,124.22000,910500
2026-03-19,123.01000,124.82000,121.45000,123.97000,518500
2026-03-20,124.26000,124.26000,120.31000,121.06000,1481500
2026-03-23,123.51000,126.34000,122.99000,124.14000,455200
2026-03-24,123.16000,125.22000,122.87000,124.15000,405000
2026-03-25,125.44000,126.57000,123.71000,125.82000,337200
2026-03-26,125.22000,127.34000,124.12000,124.69000,442100
2026-03-27,123.94000,124.21000,121.76000,121.99000,381400
2026-03-30,122.56000,123.94000,121.10000,123.36000,562000
2026-03-31,124.39000,126.96000,123.59000,126.02000,557800
2026-04-01,127.34000,128.64000,126.33000,126.75000,380200
2026-04-02,125.14000,127.09000,124.25000,126.01000,297500
2026-04-06,124.59000,126.19000,124.59000,126.01000,461100
2026-04-07,125.32000,127.17000,124.80000,125.61000,376900
2026-04-08,131.38000,132.67000,128.14999,132.02000,645200
2026-04-09,131.22000,132.44000,127.34000,131.39999,424100
2026-04-10,132.25000,132.70000,130.85001,131.50000,407400
2026-04-13,130.80000,132.42000,127.58000,132.11000,396300
2026-04-14,131.23000,132.72000,130.97000,131.00999,315500
