date,open,high,low,close,volume
2025-03-26,147.05000,148.70000,146.30000,148.56000,630400
2025-03-27,148.28000,149.89000,147.03000,149.35001,312700
2025-03-28,149.28999,150.00000,145.75999,146.92999,239800
2025-03-31,146.58000,149.09000,146.10001,148.38000,372500
2025-04-01,148.88000,150.03000,147.38000,149.10001,240000
2025-04-02,148.00000,151.13000,148.00000,150.53000,247600
2025-04-03,146.75999,150.05000,146.46001,148.67000,352900
2025-04-04,145.22000,147.96001,140.03999,140.17999,531600
2025-04-07,136.34000,142.12000,130.85001,134.64999,629900
2025-04-08,137.38000,139.31000,131.28000,133.66000,473800
2025-04-09,133.17999,144.42000,131.32001,143.75000,491800
2025-04-10,140.00000,143.37000,137.57001,140.75999,309000
2025-04-11,140.87000,144.71001,139.74001,144.11000,203000
2025-04-14,145.80000,146.39999,143.78999,145.78999,249300
2025-04-15,146.10001,146.53999,143.77000,143.94000,250700
2025-04-16,144.06000,145.82001,142.57001,145.00000,307700
2025-04-17,145.39999,145.75999,140.71001,143.83000,390600
2025-04-21,143.30000,144.05000,141.10001,142.58000,291600
2025-04-22,144.50000,146.82001,143.59000,146.02000,217800
2025-04-23,147.87000,149.32001,147.22000,148.05000,537000
2025-04-24,147.92999,152.00000,145.46001,151.46001,424500
2025-04-25,150.85001,153.00000,147.57001,149.06000,220500
2025-04-28,149.80000,151.03000,148.28000,149.70000,235200
2025-04-29,149.75999,151.98000,149.00999,150.30000,359900
2025-04-30,149.07001,149.99001,147.21001,149.95000,556200
2025-05-01,148.45000,150.53000,146.96001,148.28000,445300
2025-05-02,152.99001,153.00000,147.78999,152.00000,431600
2025-05-05,151.42999,153.22000,150.88000,151.48000,267600
2025-05-06,150.25000,152.03999,149.42000,150.92000,312000
2025-05-07,151.88000,153.14999,150.62000,151.39000,318400
2025-05-08,151.78999,154.57001,151.24001,153.36000,302500
2025-05-09,153.91000,154.30000,152.94000,153.32001,231600
2025-05-12,155.78999,156.59000,153.70000,155.52000,352500
2025-05-13,156.31000,156.31000,153.20000,153.64000,339400
2025-05-14,153.62000,153.62000,150.97000,152.48000,350100
2025-05-15,152.35001,155.48000,152.35001,154.95000,278100
2025-05-16,155.17999,157.14999,154.59000,157.00999,278600
2025-05-19,156.36000,158.34000,156.31000,158.08000,185400
2025-05-20,160.25999,160.25999,157.91000,158.53000,388100
2025-05-21,156.86000,157.64999,155.83000,156.45000,319800
2025-05-22,156.36000,157.25999,155.56000,156.64999,278900
2025-05-23,155.12000,156.17999,154.25999,155.94000,260500
2025-05-27,157.03000,158.44000,156.69000,158.16000,352800
2025-05-28,158.16000,158.84000,157.25999,157.39999,364400
2025-05-29,157.83000,158.67000,156.82001,158.33000,232100
2025-05-30,158.24001,158.78000,156.53999,158.39999,335100
2025-06-02,157.53999,159.07001,155.25999,156.91000,349600
2025-06-03,156.17999,157.44000,156.00000,156.25999,397800
2025-06-04,156.49001,156.52000,150.28999,150.41000,831900
2025-06-05,151.58000,153.34000,149.05000,152.49001,482400
2025-06-06,154.37000,154.48000,152.21001,153.31000,264700
2025-06-09,152.71001,153.17999,151.36000,151.60001,388400
2025-06-10,152.16000,153.00000,150.86000,152.53000,323500
2025-06-11,153.00000,153.59000,151.60001,151.92000,380800
2025-06-12,151.41000,154.62000,151.41000,154.35001,337200
2025-06-13,153.00000,153.72000,150.73000,151.16000,361200
2025-06-16,151.24001,152.89999,151.12000,151.69000,346200
2025-06-17,150.66000,151.25999,149.13000,149.45000,379700
2025-06-18,149.12000,150.73000,149.12000,149.70000,383200
2025-06-20,150.28999,150.77000,148.99001,150.30000,570500
2025-06-23,149.49001,153.94000,149.49001,153.78999,356500
2025-06-24,154.57001,154.57001,153.17999,153.87000,246600
2025-06-25,153.86000,154.53000,152.77000,153.92999,264700
2025-06-26,154.53000,155.58000,153.12000,154.48000,658200
2025-06-27,154.66000,156.11000,154.23000,155.82001,643100
2025-06-30,156.03000,156.50000,154.61000,156.42999,315500
2025-07-01,156.42999,159.80000,155.96001,159.00999,338300
2025-07-02,159.02000,160.53000,158.64999,160.32001,293500
2025-07-03,160.60001,161.36000,159.82001,161.03999,235100
2025-07-07,160.95000,162.37000,160.55000,160.96001,313900
2025-07-08,160.89999,162.58000,159.85001,160.05000,342700
2025-07-09,159.92999,160.00999,158.10001,159.73000,252800
2025-07-10,159.19000,160.36000,158.33000,158.33000,361600
2025-07-11,158.56000,158.56000,156.63000,157.89999,292000
2025-07-14,157.14000,158.94000,156.69000,157.56000,276600
2025-07-15,157.74001,158.00000,154.07001,154.16000,254200
2025-07-16,153.92000,155.61000,153.55000,154.98000,261900
2025-07-17,154.74001,156.41000,154.50999,156.03000,397700
2025-07-18,156.85001,157.21001,154.92000,156.38000,243100
2025-07-21,156.42000,156.67000,155.24001,155.45000,205900
2025-07-22,156.11000,159.36000,155.23000,159.17000,449900
2025-07-23,160.07001,161.85001,159.14000,161.66000,450500
2025-07-24,160.96001,164.28000,159.78999,161.82001,431900
2025-07-25,162.05000,163.09000,160.78000,160.99001,296300
2025-07-28,161.20000,161.98000,158.16000,158.70000,308500
2025-07-29,159.05000,159.60001,157.22000,158.82001,388200
2025-07-30,158.80000,158.92999,154.92000,156.78999,580700
2025-07-31,155.78000,157.35001,155.17999,157.14000,679700
2025-08-01,156.97000,158.12000,141.09000,141.35001,1012300
2025-08-04,143.12000,143.12000,137.08000,139.13000,839000
2025-08-05,139.34000,141.07001,137.69000,140.22000,540800
2025-08-06,140.31000,140.75999,137.55000,138.53999,515300
2025-08-07,139.80000,141.49001,138.91000,140.49001,564000
2025-08-08,140.69000,142.05000,140.58000,140.75000,428700
2025-08-11,141.33000,141.62000,139.20000,139.87000,349500
2025-08-12,140.22000,141.09000,139.23000,139.48000,286100
2025-08-13,139.69000,141.44000,139.25000,141.42999,729900
2025-08-14,140.19000,140.19000,136.44000,138.34000,875800
2025-08-15,138.36000,138.95000,137.87000,138.72000,770500
2025-08-18,138.89000,139.57001,137.35001,137.89000,529500
2025-08-19,138.27000,140.52000,138.27000,139.59000,333100
2025-08-20,139.91000,141.25000,139.25999,141.17999,519200
2025-08-21,140.63000,141.89999,140.24001,140.64000,270400
2025-08-22,141.25999,143.33000,141.19000,141.42999,356500
2025-08-25,140.97000,141.61000,138.96001,139.56000,245800
2025-08-26,139.07001,140.16000,138.00999,139.71001,442900
2025-08-27,139.09000,140.57001,139.03000,139.44000,729100
2025-08-28,140.17000,140.17000,137.39999,138.89000,320800
2025-08-29,139.17000,139.87000,138.35001,139.27000,370700
2025-09-02,137.42000,138.53000,136.17000,136.41000,310600
2025-09-03,136.08000,136.17999,134.44000,135.22000,382300
2025-09-04,136.35001,138.48000,135.03999,138.46001,401800
2025-09-05,139.02000,140.82001,137.63000,138.62000,440800
2025-09-08,138.59000,140.00000,137.67999,138.30000,616100
2025-09-09,138.25999,139.48000,135.10001,137.05000,637100
2025-09-10,136.13000,137.46001,134.85001,136.25000,685100
2025-09-11,136.75000,138.28000,135.87000,137.10001,477500
2025-09-12,136.62000,137.05000,135.22000,135.23000,261300
2025-09-15,135.97000,136.17000,134.63000,134.85001,298000
2025-09-16,134.78999,135.42000,134.10001,135.21001,474800
2025-09-17,135.42000,137.07001,134.19000,134.64999,377400
2025-09-18,134.89999,135.50999,134.07001,134.50000,254800
2025-09-19,134.66000,135.10001,133.34000,134.44000,877200
2025-09-22,134.12000,134.94000,132.67000,132.72000,402100
2025-09-23,133.00999,133.95000,131.97000,132.02000,319700
2025-09-24,132.00000,133.31000,131.34000,131.50000,353300
2025-09-25,131.50000,132.52000,130.27000,130.82001,388700
2025-09-26,131.33000,132.42999,130.96001,132.28999,274400
2025-09-29,132.39999,132.67999,131.36000,132.27000,540600
2025-09-30,131.71001,133.75999,131.71001,133.66000,310400
2025-10-01,133.33000,134.36000,132.31000,134.14000,310100
2025-10-02,133.66000,134.39000,132.96001,133.17999,398500
2025-10-03,132.47000,133.58000,132.42999,133.22000,402000
2025-10-06,132.89000,133.20000,131.41000,131.88000,447100
2025-10-07,132.11000,132.50999,129.81000,130.59000,438800
2025-10-08,131.17999,132.00999,130.25999,131.61000,361300
2025-10-09,131.70000,132.84000,130.20000,130.61000,554200
2025-10-10,130.94000,132.00999,129.89000,130.92999,426000
2025-10-13,130.99001,132.35001,130.16000,130.22000,311400
2025-10-14,130.03999,131.06000,129.03999,129.80000,337400
2025-10-15,129.80000,130.39000,127.86000,128.10001,438300
2025-10-16,128.44000,129.50000,127.85000,129.16000,352700
2025-10-17,129.16000,130.10001,128.85001,129.34000,339700
2025-10-20,129.61000,130.09000,128.02000,130.00000,240500
2025-10-21,130.61000,131.77000,129.12000,130.57001,311600
2025-10-22,130.64999,132.11000,129.98000,130.06000,357500
2025-10-23,129.74001,131.53000,129.66000,130.77000,378600
2025-10-24,130.75000,130.89000,128.53999,128.88000,489300
2025-10-27,129.14000,129.89999,128.45000,128.78000,521700
2025-10-28,128.75000,129.11000,127.47000,128.10001,413500
2025-10-29,127.28000,127.50000,123.42000,124.31000,651100
2025-10-30,124.04000,125.52000,123.04000,124.36000,702600
2025-10-31,115.29000,118.10000,103.23000,116.01000,2758200
2025-11-03,116.09000,116.09000,108.29000,113.12000,1661000
2025-11-04,114.36000,116.00000,112.53000,114.18000,1029100
2025-11-05,114.33000,116.04000,112.77000,115.57000,896900
2025-11-06,115.02000,116.96000,113.80000,116.15000,880300
2025-11-07,116.23000,116.92000,114.69000,116.22000,697200
2025-11-10,115.99000,116.77000,114.00000,116.38000,514000
2025-11-11,116.96000,119.51000,116.96000,118.27000,484800
2025-11-12,118.34000,119.67000,117.91000,118.16000,547500
2025-11-13,118.30000,121.88000,118.30000,120.20000,679400
2025-11-14,119.77000,120.69000,118.39000,118.61000,521200
2025-11-17,118.49000,119.49000,117.57000,119.34000,820200
2025-11-18,119.66000,120.11000,118.06000,119.31000,817400
2025-11-19,119.51000,119.51000,117.71000,118.00000,598900
2025-11-20,118.00000,119.61000,117.37000,118.58000,507400
2025-11-21,118.13000,122.24000,118.13000,121.52000,509100
2025-11-24,120.85000,122.40000,120.44000,121.47000,740000
2025-11-25,122.41000,124.08000,122.41000,123.44000,543600
2025-11-26,123.02000,124.52000,123.02000,123.81000,538000
2025-11-28,123.63000,126.08000,123.63000,124.75000,315700
2025-12-01,124.88000,124.96000,123.03000,123.28000,536800
2025-12-02,123.77000,123.86000,120.80000,121.60000,325400
2025-12-03,121.45000,124.26000,121.41000,122.06000,543100
2025-12-04,122.20000,124.08000,121.93000,122.02000,708000
2025-12-05,121.99000,123.51000,120.62000,121.91000,537000
2025-12-08,120.92000,122.10000,119.30000,120.07000,496600
2025-12-09,119.60000,119.85000,115.36000,115.72000,640300
2025-12-10,116.17000,117.80000,115.13000,117.17000,734700
2025-12-11,117.96000,118.67000,117.16000,118.01000,389700
2025-12-12,118.52000,121.64000,117.65000,121.47000,656400
2025-12-15,121.48000,122.46000,120.48000,122.33000,588600
2025-12-16,122.67000,123.85000,119.52000,122.83000,644800
2025-12-17,122.11000,124.60000,120.08000,123.63000,567300
2025-12-18,123.67000,124.12000,122.03000,122.62000,457100
2025-12-19,123.34000,124.33000,121.26000,121.39000,1300400
2025-12-22,121.39000,123.70000,121.07000,122.74000,527800
2025-12-23,122.87000,123.03000,121.32000,122.19000,311700
2025-12-24,122.53000,123.17000,121.76000,122.75000,198000
2025-12-26,122.37000,123.48000,121.72000,123.25000,306000
2025-12-29,123.29000,124.31000,122.32000,123.21000,400200
2025-12-30,122.80000,124.30000,122.42000,122.74000,289800
2025-12-31,121.52000,123.33000,121.35000,121.96000,314300
2026-01-02,121.74000,123.00000,120.78000,122.54000,295100
2026-01-05,121.76000,124.58000,121.76000,123.00000,435700
2026-01-06,122.22000,122.85000,120.11000,120.56000,777200
2026-01-07,120.67000,121.95000,117.61000,120.44000,478500
2026-01-08,119.92000,123.37000,119.52000,122.44000,330000
2026-01-09,122.08000,124.97000,121.46000,123.85000,429100
2026-01-12,124.00000,125.30000,122.98000,125.13000,477300
2026-01-13,125.05000,125.44000,122.54000,123.50000,351900
2026-01-14,124.11000,127.16000,124.11000,126.85000,611700
2026-01-15,127.14000,127.22000,124.52000,125.11000,381000
2026-01-16,124.00000,125.20000,123.24000,124.71000,363400
2026-01-20,124.90000,125.53000,123.44000,123.82000,275100
2026-01-21,124.31000,125.62000,123.90000,125.01000,421000
2026-01-22,125.05000,126.41000,124.06000,124.47000,369700
2026-01-23,124.34000,126.28000,123.87000,126.00000,429500
2026-01-26,126.42000,126.99000,125.10000,126.35000,315400
2026-01-27,124.95000,126.30000,124.17000,124.74000,303100
2026-01-28,124.20000,125.07000,123.25000,123.70000,347800
2026-01-29,124.29000,125.28000,122.59000,123.85000,386000
2026-01-30,122.91000,125.01000,122.66000,124.95000,512700
2026-02-02,124.20000,125.91000,124.20000,124.83000,489100
2026-02-03,123.91000,127.93000,123.69000,124.63000,658700
2026-02-04,125.71000,130.42000,124.70000,129.23000,589400
2026-02-05,127.67000,129.08000,121.96000,123.98000,2144200
2026-02-06,127.53000,135.99001,127.53000,134.31000,1045700
2026-02-09,133.58000,139.57001,133.25000,138.47000,1043400
2026-02-10,137.81000,140.92999,137.81000,140.17000,622100
2026-02-11,139.03000,140.55000,138.60001,140.00999,584300
2026-02-12,140.16000,142.00000,139.39000,140.50999,572700
2026-02-13,140.50999,142.92999,140.41000,142.58000,471900
2026-02-17,139.25999,143.62000,139.25999,141.64999,614700
2026-02-18,141.47000,143.11000,140.84000,141.72000,582000
2026-02-19,141.64999,143.32001,141.03000,143.16000,525500
2026-02-20,143.12000,145.14000,142.00000,145.05000,664500
2026-02-23,143.49001,146.24001,143.13000,145.72000,513500
2026-02-24,146.07001,146.91000,143.85001,144.14000,429800
2026-02-25,142.41000,143.66000,140.42999,142.67999,348900
2026-02-26,143.52000,143.92000,141.00000,141.78999,331300
2026-02-27,141.53000,144.00999,141.00000,143.71001,344600
2026-03-02,143.00000,143.35001,141.62000,142.67000,335000
2026-03-03,140.64000,141.32001,136.92000,139.75999,347300
2026-03-04,139.34000,139.50999,136.00999,137.03999,389000
2026-03-05,136.00000,136.34000,134.41000,134.73000,452300
2026-03-06,134.00000,134.00000,131.00000,132.08000,398500
2026-03-09,130.97000,133.98000,127.53000,133.75000,545700
2026-03-10,133.35001,134.13000,131.39999,132.13000,503100
2026-03-11,131.80000,133.28000,130.03999,132.02000,563800
2026-03-12,131.27000,132.78999,128.64000,128.86000,620600
2026-03-13,130.14999,130.14999,127.05000,128.64999,660600
2026-03-16,129.48000,131.41000,126.00000,129.05000,370700
2026-03-17,129.97000,131.02000,128.24001,129.50000,276700
2026-03-18,124.38000,126.58000,121.42000,124.22000,910500
2026-03-19,123.01000,124.82000,121.45000,123.97000,518500
2026-03-20,124.26000,124.26000,120.31000,121.06000,1481500
2026-03-23,123.51000,126.34000,122.99000,124.14000,455200
2026-03-24,123.16000,125.22000,122.87000,124.15000,405000
2026-03-25,125.44000,126.57000,123.71000,125.82000,337200
2026-03-26,125.22000,127.33500,124.66800,125.34000,71946
