date,open,high,low,close,volume
2023-10-03,14.80000,15.00000,14.60000,14.85000,39180
2023-10-04,15.00000,15.00000,14.80000,14.95000,50070
2023-10-05,14.90000,15.00000,14.55000,14.70000,32080
2023-10-06,14.95000,15.25000,14.75000,15.05000,49813
2023-10-09,15.05000,15.15000,14.60000,14.70000,38518
2023-10-10,14.90000,15.05000,14.40000,14.60000,69657
2023-10-11,14.65000,16.30000,14.60000,16.15000,721276
2023-10-12,16.40000,16.40000,15.50000,15.90000,198664
2023-10-13,16.00000,16.00000,15.50000,15.55000,105239
2023-10-16,15.80000,16.00000,15.15000,15.40000,205377
2023-10-17,15.45000,15.70000,15.25000,15.35000,93352
2023-10-18,15.35000,15.50000,14.95000,15.10000,108343
2023-10-19,15.10000,15.20000,14.80000,14.95000,83492
2023-10-20,15.05000,15.40000,14.80000,15.00000,42346
2023-10-23,15.20000,15.20000,13.55000,13.80000,97044
2023-10-25,14.05000,14.55000,13.80000,14.05000,422522
2023-10-26,13.85000,14.10000,13.25000,13.50000,142623
2023-10-27,13.50000,14.10000,13.50000,13.70000,328751
2023-10-30,13.70000,14.10000,13.65000,13.75000,229545
2023-10-31,13.75000,13.95000,13.60000,13.80000,42043
2023-11-01,14.00000,14.10000,13.70000,13.80000,276966
2023-11-02,13.80000,14.20000,13.80000,13.90000,500116
2023-11-03,14.10000,14.40000,14.00000,14.05000,255031
2023-11-06,14.00000,14.70000,14.00000,14.50000,814688
2023-11-07,14.70000,14.70000,14.40000,14.45000,156940
2023-11-08,14.75000,15.05000,14.60000,14.80000,431103
2023-11-09,14.75000,15.05000,14.35000,14.45000,635529
2023-11-10,14.65000,16.20000,14.45000,15.65000,1345542
2023-11-13,15.70000,15.80000,15.30000,15.45000,327788
2023-11-15,15.50000,15.75000,15.25000,15.35000,473832
2023-11-16,15.35000,15.45000,15.05000,15.20000,872176
2023-11-17,15.10000,15.75000,14.95000,15.50000,955462
2023-11-20,15.35000,17.80000,15.35000,16.95000,2020875
2023-11-21,17.75000,18.20000,17.30000,17.95000,1713511
2023-11-22,18.15000,18.15000,16.40000,16.70000,653775
2023-11-23,16.70000,17.15000,16.50000,16.70000,274110
2023-11-24,16.90000,17.30000,16.80000,17.05000,498725
2023-11-28,17.45000,17.50000,16.60000,16.75000,705319
2023-11-29,17.00000,17.00000,16.50000,16.55000,734543
2023-11-30,16.60000,16.75000,15.80000,15.95000,525311
2023-12-01,16.20000,16.50000,15.90000,16.15000,484883
2023-12-04,16.50000,16.50000,16.05000,16.15000,77410
2023-12-05,16.30000,16.35000,15.75000,16.05000,221430
2023-12-06,16.40000,17.60000,16.35000,17.00000,972702
2023-12-07,17.20000,17.65000,16.50000,17.10000,323111
2023-12-08,17.35000,17.35000,16.65000,16.75000,146779
2023-12-11,17.00000,17.00000,16.45000,16.55000,219606
2023-12-12,16.75000,16.95000,16.35000,16.45000,192802
2023-12-13,16.60000,16.75000,16.20000,16.40000,132498
2023-12-14,16.50000,16.80000,16.15000,16.35000,155896
2023-12-15,16.50000,16.50000,16.15000,16.20000,81797
2023-12-18,16.25000,19.40000,16.25000,18.90000,2511418
2023-12-19,19.60000,19.80000,18.05000,18.95000,1926599
2023-12-20,18.70000,19.80000,17.90000,18.15000,1198050
2023-12-21,18.40000,19.30000,17.60000,18.95000,753780
2023-12-22,19.35000,19.35000,18.15000,18.35000,283104
2023-12-26,18.60000,18.85000,17.75000,18.20000,254886
2023-12-27,18.25000,18.70000,17.30000,17.50000,285999
2023-12-28,17.60000,17.70000,16.50000,16.65000,429151
2023-12-29,16.80000,17.95000,16.75000,17.50000,225203
2024-01-01,17.70000,19.05000,17.55000,18.30000,536360
2024-01-02,18.75000,20.80000,18.45000,20.25000,2746516
2024-01-03,20.45000,20.70000,19.60000,19.85000,615802
2024-01-04,19.90000,20.20000,19.45000,19.55000,357173
2024-01-05,19.60000,19.80000,18.40000,19.25000,570521
2024-01-08,19.25000,20.20000,19.05000,19.65000,542363
2024-01-09,19.80000,20.70000,19.25000,20.35000,692641
2024-01-10,20.05000,20.45000,19.80000,19.95000,359423
2024-01-11,19.95000,20.20000,19.45000,19.70000,178537
2024-01-12,19.70000,20.40000,19.20000,19.35000,395051
2024-01-15,19.45000,20.55000,19.30000,19.95000,545691
2024-01-16,20.55000,20.60000,19.00000,19.55000,438396
2024-01-17,19.55000,19.80000,18.85000,19.15000,172470
2024-01-18,19.05000,19.80000,18.40000,19.20000,199832
2024-01-19,19.40000,20.40000,19.15000,19.75000,464185
2024-01-23,19.50000,19.75000,17.90000,18.25000,307197
2024-01-24,18.30000,18.60000,17.70000,17.90000,522103
2024-01-25,18.05000,18.95000,18.00000,18.55000,505999
2024-01-29,18.85000,19.35000,18.35000,18.55000,473863
2024-01-30,18.80000,19.90000,18.10000,19.30000,881136
2024-01-31,19.30000,19.80000,18.85000,18.95000,461047
2024-02-01,19.25000,19.40000,18.50000,18.65000,328657
2024-02-02,18.85000,19.20000,18.40000,18.50000,312814
2024-02-05,18.70000,19.35000,18.00000,18.15000,255041
2024-02-06,18.45000,21.75000,18.00000,21.75000,4434228
2024-02-07,21.90000,24.35000,20.50000,23.05000,6061557
2024-02-08,23.70000,23.90000,22.40000,23.35000,1453883
2024-02-09,24.00000,24.00000,21.00000,21.95000,1023722
2024-02-12,22.00000,22.40000,19.30000,19.65000,702268
2024-02-13,19.05000,20.15000,18.70000,19.25000,471798
2024-02-14,18.85000,20.40000,18.85000,20.25000,410323
2024-02-15,20.85000,21.20000,20.45000,20.70000,326424
2024-02-16,21.05000,21.70000,20.85000,21.25000,374675
2024-02-19,21.65000,21.65000,20.60000,20.70000,221074
2024-02-20,20.70000,21.15000,20.00000,20.15000,259170
2024-02-21,20.25000,21.00000,19.45000,19.70000,426046
2024-02-22,19.90000,20.85000,19.20000,20.35000,471362
2024-02-23,20.50000,20.70000,19.80000,19.90000,205478
2024-02-26,20.00000,20.10000,19.00000,19.20000,349526
2024-02-27,19.35000,19.95000,18.55000,18.90000,351210
2024-02-28,19.00000,19.30000,17.90000,18.30000,353315
2024-02-29,18.30000,18.50000,17.95000,18.35000,104803
2024-03-01,18.55000,19.35000,18.30000,19.15000,375337
2024-03-04,19.30000,20.50000,18.60000,19.60000,1032288
2024-03-05,19.60000,20.70000,19.15000,19.40000,430469
2024-03-06,19.50000,19.60000,18.35000,18.85000,259658
2024-03-07,18.60000,19.20000,18.60000,18.75000,93568
2024-03-11,18.95000,18.95000,17.90000,18.20000,166822
2024-03-12,18.15000,18.25000,16.60000,16.85000,278542
2024-03-13,16.60000,17.05000,15.20000,15.40000,326514
2024-03-14,15.30000,16.15000,14.80000,15.75000,323350
2024-03-15,15.90000,16.30000,15.55000,15.90000,139280
2024-03-18,15.65000,16.30000,15.60000,15.95000,101099
2024-03-19,15.65000,16.10000,15.15000,15.35000,156688
2024-03-20,15.25000,15.65000,14.55000,14.90000,175876
2024-03-21,15.00000,16.50000,14.95000,16.05000,618976
2024-03-22,16.05000,16.15000,15.60000,15.75000,155728
2024-03-26,16.00000,16.15000,15.40000,15.50000,123171
2024-03-27,15.40000,15.75000,14.50000,14.80000,307388
2024-03-28,15.00000,15.45000,14.55000,14.65000,164925
2024-04-01,14.50000,16.20000,14.40000,16.10000,220502
2024-04-02,16.05000,16.75000,15.80000,16.60000,154019
2024-04-03,16.95000,17.60000,16.55000,17.30000,301469
2024-04-04,17.95000,20.20000,17.10000,19.55000,1437274
2024-04-05,19.55000,21.25000,18.80000,20.85000,1624947
2024-04-08,21.55000,21.55000,19.60000,19.75000,367879
2024-04-09,19.95000,20.90000,19.40000,19.50000,248792
2024-04-10,19.55000,20.20000,19.20000,19.35000,168929
2024-04-12,19.05000,19.90000,18.30000,18.90000,238854
2024-04-15,17.80000,19.30000,17.30000,19.10000,367991
2024-04-16,19.10000,21.00000,18.50000,21.00000,1304407
2024-04-18,21.40000,23.10000,21.15000,22.15000,1986566
2024-04-19,22.00000,22.25000,20.90000,22.10000,346575
2024-04-22,23.05000,23.20000,21.60000,22.45000,371283
2024-04-23,22.05000,22.90000,21.80000,22.05000,245867
2024-04-24,22.00000,22.50000,21.90000,22.00000,287056
2024-04-25,22.25000,22.25000,21.00000,21.35000,173168
2024-04-26,21.35000,21.80000,21.35000,21.60000,106113
2024-04-29,21.95000,21.95000,21.50000,21.70000,117777
2024-04-30,22.00000,22.70000,21.65000,22.05000,256537
2024-05-02,22.35000,23.25000,21.15000,22.90000,800970
2024-05-03,22.95000,23.00000,22.40000,22.60000,178059
2024-05-06,22.75000,22.85000,22.15000,22.45000,193243
2024-05-07,23.00000,23.00000,21.80000,22.10000,146988
2024-05-08,22.50000,22.70000,21.95000,22.05000,86039
2024-05-09,22.20000,22.25000,20.15000,20.80000,112511
2024-05-10,20.40000,20.85000,20.15000,20.60000,42582
2024-05-13,20.60000,20.85000,19.60000,20.20000,52836
2024-05-14,19.80000,22.05000,19.70000,21.55000,173093
2024-05-15,21.75000,22.25000,21.00000,21.50000,73362
2024-05-16,21.90000,21.90000,21.00000,21.05000,55536
2024-05-17,20.60000,22.20000,20.60000,21.45000,160020
2024-05-21,21.00000,22.00000,20.50000,21.25000,167699
2024-05-22,21.40000,21.45000,20.70000,21.00000,65009
2024-05-23,21.05000,21.35000,20.60000,20.70000,44899
2024-05-24,20.95000,21.05000,20.30000,20.55000,45103
2024-05-27,20.60000,20.90000,20.10000,20.25000,58758
2024-05-28,20.00000,20.45000,19.85000,19.90000,46062
2024-05-29,19.70000,21.10000,19.70000,20.70000,109213
2024-05-30,20.95000,21.10000,19.65000,20.10000,68494
2024-05-31,20.00000,20.30000,19.55000,19.70000,64092
2024-06-03,19.75000,20.45000,19.65000,19.80000,46103
2024-06-04,20.15000,20.15000,17.85000,18.35000,220207
2024-06-05,18.35000,18.90000,17.50000,18.30000,96204
2024-06-06,18.45000,19.85000,18.35000,19.55000,83179
2024-06-07,19.90000,21.50000,19.40000,20.00000,186798
2024-06-10,20.90000,20.90000,20.01000,20.21000,53281
2024-06-11,20.38000,20.80000,19.87000,20.21000,66456
2024-06-12,20.25000,20.50000,19.56000,19.97000,82620
2024-06-13,20.28000,20.28000,19.85000,19.91000,41243
2024-06-14,19.95000,20.90000,19.88000,20.02000,186163
2024-06-18,20.05000,20.49000,19.50000,19.63000,124568
2024-06-19,19.85000,19.85000,19.01000,19.18000,76697
2024-06-20,19.38000,19.58000,19.00000,19.09000,120780
2024-06-21,19.30000,19.53000,19.05000,19.46000,77355
2024-06-24,19.65000,20.14000,19.40000,19.46000,127706
2024-06-25,19.49000,19.90000,19.26000,19.32000,89751
2024-06-26,19.30000,19.87000,19.00000,19.53000,137472
2024-06-27,19.53000,19.64000,19.36000,19.57000,88836
2024-06-28,19.79000,19.79000,19.17000,19.61000,135717
2024-07-01,19.74000,20.75000,19.62000,20.50000,204523
2024-07-02,20.51000,21.80000,20.02000,21.16000,666799
2024-07-03,21.48000,21.79000,20.90000,20.93000,147120
2024-07-04,20.80000,21.18000,20.15000,20.28000,47598
2024-07-05,20.70000,21.80000,20.10000,21.02000,168096
2024-07-08,21.44000,21.92000,20.50000,21.02000,289215
2024-07-09,21.24000,21.99000,20.95000,20.97000,160139
2024-07-10,21.23000,21.23000,20.30000,20.62000,76323
2024-07-11,20.95000,20.95000,20.30000,20.34000,61478
2024-07-12,20.25000,21.40000,20.25000,21.10000,149216
2024-07-15,21.47000,21.47000,20.58000,20.73000,62068
2024-07-16,20.97000,20.97000,20.12000,20.27000,83161
2024-07-18,20.32000,21.25000,19.81000,20.47000,199309
2024-07-19,20.67000,20.70000,19.81000,20.07000,83057
2024-07-22,19.95000,20.07000,19.80000,19.84000,36919
2024-07-23,19.85000,20.24000,19.00000,19.75000,188638
2024-07-24,19.52000,21.72000,19.52000,21.60000,602057
2024-07-25,21.50000,23.27000,21.05000,21.74000,791043
2024-07-26,21.74000,22.19000,21.12000,21.25000,112955
2024-07-29,21.06000,21.46000,20.61000,20.96000,101884
2024-07-30,20.52000,21.65000,20.52000,21.13000,72161
2024-07-31,21.00000,21.43000,20.70000,20.83000,91101
2024-08-01,21.39000,21.39000,20.25000,20.46000,86999
2024-08-02,20.50000,20.96000,19.86000,20.77000,100794
2024-08-05,20.52000,20.52000,19.39000,19.85000,187224
2024-08-06,20.25000,20.39000,19.11000,19.40000,66892
2024-08-07,19.67000,21.45000,19.02000,20.30000,310962
2024-08-08,20.05000,20.86000,20.00000,20.12000,36935
2024-08-09,20.53000,22.78000,20.20000,21.83000,923112
2024-08-12,21.99000,22.40000,21.23000,21.38000,263170
2024-08-13,21.78000,21.78000,20.20000,20.31000,96181
2024-08-14,20.37000,20.59000,19.81000,19.94000,41942
2024-08-16,19.95000,20.44000,19.95000,20.11000,42862
2024-08-19,20.34000,22.80000,19.84000,22.39000,564336
2024-08-20,25.00000,25.35000,21.74000,23.53000,3481112
2024-08-21,23.50000,24.84000,22.80000,23.04000,896280
2024-08-22,23.37000,23.90000,22.51000,22.61000,161195
2024-08-23,22.60000,23.49000,21.90000,22.25000,367057
2024-08-26,22.70000,23.45000,22.10000,22.64000,98490
2024-08-27,22.88000,22.88000,21.02000,21.53000,221554
2024-08-28,21.68000,21.99000,20.82000,20.98000,202537
2024-08-29,21.19000,21.80000,20.65000,20.73000,139786
2024-08-30,20.93000,21.44000,20.06000,20.98000,521817
2024-09-02,21.30000,22.74000,20.85000,22.14000,637951
2024-09-03,22.54000,22.81000,22.00000,22.58000,282024
2024-09-04,21.62000,22.48000,21.62000,22.01000,91885
2024-09-05,22.00000,22.74000,21.85000,21.98000,185383
2024-09-06,22.17000,22.49000,21.55000,21.97000,269622
2024-09-09,21.96000,22.22000,21.52000,21.79000,121701
2024-09-10,21.73000,22.29000,21.73000,21.95000,64646
2024-09-11,21.95000,22.47000,21.95000,22.03000,112487
2024-09-12,22.07000,22.30000,21.45000,21.56000,85942
2024-09-13,21.88000,22.50000,21.60000,21.96000,401079
2024-09-16,22.38000,22.40000,21.81000,21.83000,85258
2024-09-17,21.50000,22.00000,21.50000,21.78000,58868
2024-09-18,21.96000,21.96000,20.80000,21.15000,179999
2024-09-19,21.43000,21.44000,20.45000,20.53000,138484
2024-09-20,20.99000,21.40000,20.68000,21.09000,123072
2024-09-23,21.10000,21.10000,20.85000,20.91000,50349
2024-09-24,20.96000,21.45000,20.65000,20.87000,81450
2024-09-25,20.98000,20.99000,19.97000,20.02000,267600
2024-09-26,20.28000,20.49000,19.99000,20.19000,111644
2024-09-27,20.64000,20.64000,20.02000,20.16000,64691
2024-09-30,20.16000,20.60000,20.00000,20.15000,159350
2024-10-01,20.28000,21.00000,20.05000,20.71000,200887
2024-10-03,20.98000,20.98000,20.11000,20.19000,85454
2024-10-04,20.19000,20.49000,19.45000,19.61000,139100
2024-10-07,19.87000,19.87000,18.61000,18.77000,107194
2024-10-08,19.00000,19.68000,18.69000,19.28000,68949
2024-10-09,19.66000,20.66000,19.31000,20.28000,167954
2024-10-10,20.44000,20.89000,20.15000,20.31000,125314
2024-10-11,20.44000,20.59000,19.82000,19.92000,61127
2024-10-14,20.25000,20.25000,19.65000,19.88000,83934
2024-10-15,19.55000,20.00000,19.52000,19.58000,40402
2024-10-16,19.75000,19.75000,19.00000,19.27000,79476
2024-10-17,19.27000,19.47000,18.80000,18.94000,71043
2024-10-18,18.82000,19.19000,18.65000,19.06000,42771
2024-10-21,19.44000,19.44000,18.70000,18.72000,23218
2024-10-22,18.75000,18.91000,18.01000,18.05000,31415
2024-10-23,18.00000,18.39000,17.22000,17.52000,145645
2024-10-24,17.33000,17.98000,17.12000,17.84000,76989
2024-10-25,17.84000,17.85000,17.25000,17.40000,49865
2024-10-28,17.10000,17.87000,17.10000,17.23000,51233
2024-10-29,17.79000,17.79000,16.91000,17.09000,62044
2024-10-30,17.45000,17.95000,17.09000,17.71000,50401
2024-10-31,17.41000,18.50000,17.41000,17.96000,68500
2024-11-01,18.48000,18.77000,18.02000,18.62000,27538
2024-11-04,19.05000,20.10000,18.89000,19.21000,143263
2024-11-05,19.26000,19.96000,19.26000,19.38000,76329
2024-11-06,19.40000,19.69000,18.86000,19.47000,46019
2024-11-07,19.48000,19.51000,18.92000,19.09000,25913
2024-11-08,19.19000,19.19000,18.60000,18.77000,35145
2024-11-11,19.15000,19.30000,18.90000,19.08000,28894
2024-11-12,19.24000,19.24000,18.00000,18.23000,37599
2024-11-13,18.22000,18.22000,17.11000,17.23000,57046
2024-11-14,17.58000,17.72000,17.30000,17.58000,23935
2024-11-18,17.58000,17.70000,16.62000,16.92000,49551
2024-11-19,17.23000,17.64000,16.77000,16.96000,74298
2024-11-21,16.80000,17.12000,16.20000,16.33000,54297
2024-11-22,16.60000,16.84000,16.37000,16.71000,24507
2024-11-25,16.99000,17.55000,16.99000,17.15000,67404
2024-11-26,17.49000,17.55000,16.20000,17.15000,39957
2024-11-27,17.44000,17.59000,17.16000,17.33000,23814
2024-11-28,17.69000,18.10000,17.31000,17.72000,55293
2024-11-29,17.98000,18.40000,17.66000,17.89000,22201
2024-12-02,18.30000,19.34000,18.01000,18.86000,169219
2024-12-03,18.96000,19.21000,18.71000,18.99000,68582
2024-12-04,18.64000,20.00000,18.61000,19.00000,84265
2024-12-05,19.00000,19.55000,18.70000,19.34000,43020
2024-12-06,19.49000,19.60000,18.95000,19.15000,65135
2024-12-09,19.15000,20.75000,19.15000,19.70000,265881
2024-12-10,19.89000,19.93000,19.30000,19.56000,51141
2024-12-11,19.70000,19.74000,19.25000,19.30000,36732
2024-12-12,19.50000,19.50000,19.07000,19.21000,86996
2024-12-13,19.21000,19.48000,18.74000,19.00000,44201
2024-12-16,18.83000,20.13000,18.83000,19.56000,145246
2024-12-17,19.00000,19.64000,18.76000,18.95000,55572
2024-12-18,18.70000,19.43000,18.60000,18.68000,36704
2024-12-19,18.68000,19.03000,18.46000,18.81000,87725
2024-12-20,18.99000,19.10000,18.71000,18.75000,78285
2024-12-23,18.75000,18.93000,18.10000,18.16000,51379
2024-12-24,18.05000,18.30000,17.31000,17.97000,53752
2024-12-26,17.52000,18.08000,17.52000,17.78000,24032
2024-12-27,17.55000,17.99000,17.55000,17.83000,26303
2024-12-30,17.53000,17.92000,17.53000,17.63000,28077
2024-12-31,17.36000,18.97000,17.35000,18.18000,10838
2025-01-01,18.20000,18.79000,18.11000,18.18000,79880
2025-01-02,18.48000,18.68000,18.18000,18.52000,22543
2025-01-03,18.44000,18.99000,18.17000,18.30000,37626
2025-01-06,18.17000,18.39000,17.38000,17.44000,42507
2025-01-07,17.57000,18.15000,17.57000,18.01000,36407
2025-01-08,18.30000,18.30000,18.00000,18.01000,28787
2025-01-09,18.03000,18.54000,17.50000,18.06000,40184
2025-01-10,18.49000,18.49000,17.00000,17.20000,68615
2025-01-13,17.00000,17.60000,16.25000,16.89000,145736
2025-01-14,17.08000,17.28000,16.71000,17.01000,37281
2025-01-15,16.78000,17.38000,16.78000,17.10000,50716
2025-01-16,17.39000,17.39000,17.00000,17.19000,28612
2025-01-17,17.01000,17.45000,16.50000,16.88000,53823
2025-01-20,17.19000,17.19000,16.89000,17.06000,18396
2025-01-21,17.06000,17.19000,16.48000,16.51000,43094
2025-01-22,16.52000,16.87000,16.25000,16.59000,17317
2025-01-23,16.55000,17.50000,16.30000,16.56000,99971
2025-01-24,16.86000,16.86000,14.60000,15.14000,183985
2025-01-27,15.14000,15.14000,14.50000,14.54000,430577
2025-01-28,14.80000,15.95000,14.50000,15.39000,97490
2025-01-29,15.65000,16.40000,15.46000,16.08000,88820
2025-01-30,16.00000,18.20000,16.00000,17.83000,197686
2025-01-31,18.25000,20.05000,17.85000,19.48000,491499
2025-02-01,19.49000,21.20000,18.53000,20.07000,259985
2025-02-03,20.06000,20.06000,19.50000,19.62000,68335
2025-02-04,19.98000,20.25000,19.50000,19.90000,50915
2025-02-05,20.00000,20.00000,19.00000,19.24000,45610
2025-02-06,19.65000,20.80000,18.50000,20.43000,263486
2025-02-07,20.00000,20.39000,19.11000,19.50000,102317
2025-02-10,20.00000,20.00000,19.00000,19.35000,47454
2025-02-11,19.97000,20.60000,19.00000,20.28000,297837
2025-02-12,20.48000,22.69000,20.36000,22.22000,1727835
2025-02-13,22.18000,23.50000,21.20000,22.61000,603448
2025-02-14,23.40000,23.40000,21.92000,22.43000,244385
2025-02-17,22.95000,23.25000,22.00000,22.52000,221842
2025-02-18,23.49000,23.49000,22.00000,22.95000,308089
2025-02-19,23.29000,27.00000,23.01000,25.26000,874064
2025-02-20,25.50000,29.00000,25.07000,27.13000,1263696
2025-02-21,27.80000,31.20000,27.50000,30.22000,1149173
2025-02-24,32.00000,36.26000,31.30000,36.26000,5656998
2025-02-25,35.00000,36.00000,34.44000,34.44000,219078
2025-02-27,32.71000,32.71000,32.71000,32.71000,7447
2025-02-28,31.07000,31.07000,31.07000,31.07000,9825
2025-03-03,29.51000,29.51000,29.51000,29.51000,89287
2025-03-04,28.08000,28.08000,28.03000,28.03000,8686
2025-03-05,26.62000,26.62000,26.62000,26.62000,49996
2025-03-06,25.28000,25.28000,25.28000,25.28000,8457
2025-03-07,24.01000,26.54000,24.01000,26.54000,356098
2025-03-10,27.60000,27.80000,25.21000,25.21000,165006
2025-03-11,23.95000,23.95000,23.94000,23.94000,213297
2025-03-12,22.74000,24.10000,22.74000,23.81000,371268
2025-03-13,23.00000,25.00000,22.61000,25.00000,340195
2025-03-17,24.05000,24.50000,23.75000,23.75000,78720
2025-03-19,25.45000,25.46000,24.26000,25.46000,63768
2025-03-20,26.64000,26.73000,26.50000,26.73000,20941
2025-03-21,27.70000,28.06000,27.05000,28.06000,98970
2025-03-24,29.40000,29.46000,28.50000,29.46000,15486
2025-03-25,30.93000,30.93000,30.93000,30.93000,44249
2025-03-26,31.54000,31.54000,30.31000,31.54000,119962
2025-03-27,32.17000,32.17000,32.17000,32.17000,30533
2025-03-28,32.81000,32.81000,32.81000,32.81000,28661
2025-04-01,33.46000,33.46000,33.46000,33.46000,16372
2025-04-02,34.12000,34.12000,34.12000,34.12000,30920
2025-04-03,34.80000,34.80000,34.80000,34.80000,22441
2025-04-04,35.49000,35.49000,35.49000,35.49000,37274
2025-04-07,36.19000,36.19000,36.19000,36.19000,155576
2025-04-08,36.91000,36.91000,36.91000,36.91000,36527
2025-04-09,37.64000,37.64000,37.64000,37.64000,46587
2025-04-11,38.39000,38.39000,38.39000,38.39000,30197
2025-04-15,39.15000,39.15000,39.15000,39.15000,31442
2025-04-16,39.93000,39.93000,39.93000,39.93000,23110
2025-04-17,40.72000,40.72000,40.72000,40.72000,21244
2025-04-21,39.90000,39.90000,39.90000,39.90000,281187
2025-04-22,39.10000,39.10000,39.10000,39.10000,272985
2025-04-23,38.31000,38.31000,38.31000,38.31000,29895
2025-04-24,37.54000,37.56000,37.54000,37.54000,523065
2025-04-25,36.78000,36.78000,36.78000,36.78000,62507
2025-04-28,36.04000,36.78000,36.04000,36.04000,261861
2025-04-29,35.31000,35.31000,35.31000,35.31000,49220
2025-04-30,34.60000,34.60000,34.60000,34.60000,23775
2025-05-02,33.90000,33.90000,33.90000,33.90000,8873
2025-05-05,32.50000,33.89000,32.20000,32.20000,864614
2025-05-06,30.59000,30.59000,30.59000,30.59000,124674
2025-05-07,29.06000,32.11000,29.06000,30.83000,364545
2025-05-08,32.37000,32.37000,31.89000,32.36000,199465
2025-05-09,31.00000,33.97000,30.74000,33.95000,161434
2025-05-12,35.64000,35.64000,35.38000,35.64000,135622
2025-05-13,37.42000,37.42000,37.42000,37.42000,87196
2025-05-14,39.29000,39.29000,35.60000,37.74000,1085952
2025-05-15,36.98000,36.98000,36.98000,36.98000,76078
2025-05-16,37.50000,37.50000,37.05000,37.50000,194376
2025-05-19,37.50000,37.50000,37.10000,37.50000,59507
2025-05-20,38.25000,38.25000,37.83000,38.25000,50707
2025-05-21,39.01000,39.01000,39.01000,39.01000,11730
2025-05-22,39.79000,39.79000,39.79000,39.79000,21454
2025-05-23,40.58000,40.58000,40.58000,40.58000,10670
2025-05-26,41.39000,41.39000,41.39000,41.39000,8638
2025-05-27,42.21000,42.21000,42.21000,42.21000,12604
2025-05-28,43.05000,43.05000,43.05000,43.05000,17800
2025-05-29,43.91000,43.91000,43.91000,43.91000,8293
2025-05-30,43.03000,44.78000,43.03000,43.03000,860078
2025-06-02,42.16000,42.16000,42.16000,42.16000,95544
2025-06-03,41.31000,41.31000,41.31000,41.31000,25827
2025-06-04,40.48000,40.48000,40.48000,40.48000,37980
2025-06-05,39.67000,39.67000,39.67000,39.67000,47978
2025-06-06,38.87000,38.87000,38.87000,38.87000,21615
2025-06-09,39.64000,39.64000,38.09000,39.64000,212381
2025-06-10,38.84000,38.84000,38.84000,38.84000,59702
2025-06-11,38.06000,38.06000,38.06000,38.06000,41232
2025-06-12,37.29000,37.29000,37.29000,37.29000,170845
2025-06-13,36.54000,36.54000,36.54000,36.54000,38358
2025-06-16,35.80000,35.80000,35.80000,35.80000,7095
2025-06-17,35.08000,35.08000,35.08000,35.08000,46973
2025-06-18,34.37000,35.78000,34.37000,34.37000,675387
2025-06-19,33.68000,33.68000,33.68000,33.68000,126661
2025-06-20,33.00000,33.00000,33.00000,33.00000,440710
2025-06-23,31.35000,31.35000,31.35000,31.35000,89928
2025-06-24,29.78000,32.91000,29.78000,31.71000,820012
2025-06-25,30.60000,32.40000,30.12000,31.83000,277473
2025-06-26,32.00000,32.90000,31.15000,31.33000,46820
2025-06-27,30.70000,32.89000,30.70000,32.88000,96552
2025-06-30,33.40000,34.52000,33.40000,34.52000,158910
2025-07-01,36.24000,36.24000,35.01000,35.15000,265582
2025-07-02,36.00000,36.00000,33.39000,33.75000,285130
2025-07-03,33.40000,34.25000,32.07000,32.14000,140776
2025-07-04,31.85000,32.50000,31.05000,32.07000,63461
2025-07-07,31.40000,32.69000,31.00000,32.11000,32457
2025-07-08,31.99000,32.70000,30.65000,32.00000,22583
2025-07-09,32.00000,32.90000,31.10000,31.42000,45210
2025-07-10,31.51000,32.45000,31.00000,31.22000,71143
2025-07-11,32.20000,32.20000,31.00000,31.75000,35786
2025-07-14,32.24000,32.24000,31.07000,31.57000,16558
2025-07-15,31.57000,32.10000,30.96000,31.93000,48930
2025-07-16,32.00000,33.52000,32.00000,33.52000,29399
2025-07-17,35.10000,35.19000,35.00000,35.19000,269257
2025-07-18,34.22000,36.94000,34.10000,36.94000,145115
2025-07-21,35.51000,38.00000,35.09000,35.92000,556017
2025-07-22,35.20000,35.20000,35.20000,35.20000,53617
2025-07-23,34.49000,34.49000,34.49000,34.49000,3055
2025-07-24,33.80000,33.80000,33.80000,33.80000,927
2025-07-25,33.12000,33.12000,33.12000,33.12000,25133
2025-07-28,32.45000,32.45000,32.45000,32.45000,17643
2025-07-29,33.09000,33.09000,32.45000,33.09000,95494
2025-07-30,33.05000,33.69000,33.00000,33.05000,14824
2025-07-31,33.45000,33.45000,33.00000,33.45000,17210
2025-08-01,33.60000,33.60000,33.60000,33.60000,24953
2025-08-04,34.27000,34.27000,33.00000,34.27000,14652
2025-08-05,34.88000,34.92000,34.88000,34.88000,13276
2025-08-06,34.18000,34.88000,34.18000,34.18000,1591
2025-08-07,33.49000,33.99000,33.49000,33.49000,118
2025-08-08,33.00000,33.49000,32.82000,33.00000,32051
2025-08-11,33.00000,33.00000,32.41000,33.00000,4094
2025-08-12,32.34000,33.00000,32.34000,32.34000,4823
2025-08-13,31.70000,32.50000,31.70000,31.70000,24098
2025-08-14,31.06000,31.11000,31.06000,31.06000,3650
2025-08-18,30.43000,31.21000,30.43000,30.43000,14696
2025-08-19,31.03000,31.03000,30.61000,31.03000,53106
2025-08-20,31.60000,31.65000,31.49000,31.60000,16197
2025-08-21,32.23000,32.23000,32.00000,32.23000,24766
2025-08-22,32.87000,32.87000,32.87000,32.87000,2601
2025-08-25,33.00000,33.52000,32.98000,33.00000,46052
2025-08-26,32.34000,32.34000,32.34000,32.34000,47021
2025-08-28,31.69000,31.75000,31.69000,31.69000,13156
2025-08-29,31.10000,31.60000,31.05000,31.10000,41353
2025-09-01,31.41000,32.20000,29.63000,31.16000,49878
2025-09-02,30.15000,31.52000,30.00000,30.17000,27743
2025-09-03,30.00000,30.68000,29.15000,30.18000,34576
2025-09-04,29.95000,30.90000,29.20000,29.53000,30932
2025-09-05,29.57000,30.00000,29.00000,29.61000,16345
2025-09-08,29.61000,31.07000,29.50000,30.27000,8810
2025-09-09,29.80000,30.87000,29.26000,30.00000,47216
2025-09-10,29.51000,31.00000,29.40000,30.50000,23235
2025-09-11,29.90000,31.00000,29.50000,30.60000,20208
2025-09-12,30.26000,31.41000,30.21000,31.03000,16174
2025-09-15,32.50000,37.23000,32.50000,33.97000,898722
2025-09-16,34.00000,35.99000,33.60000,34.87000,149365
2025-09-17,35.00000,35.00000,32.20000,32.85000,112132
2025-09-18,32.80000,36.18000,32.26000,34.50000,132921
2025-09-19,34.49000,35.95000,33.00000,34.79000,65706
2025-09-22,35.45000,35.45000,33.01000,33.13000,36939
2025-09-23,33.00000,34.60000,32.49000,32.86000,572020
2025-09-24,33.50000,33.90000,32.00000,32.20000,57140
2025-09-25,33.01000,33.06000,31.30000,32.03000,36075
2025-09-26,32.03000,33.03000,31.20000,31.38000,23145
2025-09-29,30.55000,33.00000,30.55000,30.93000,57589
2025-09-30,30.55000,31.95000,30.55000,30.96000,28094
2025-10-01,30.10000,31.09000,29.20000,30.55000,38738
2025-10-03,29.50000,33.50000,29.50000,33.10000,85307
2025-10-06,32.51000,33.79000,32.50000,32.52000,37376
2025-10-07,32.10000,33.00000,32.01000,32.26000,35119
2025-10-08,32.98000,33.00000,31.00000,31.57000,46363
2025-10-09,31.52000,33.43000,31.01000,31.92000,29561
2025-10-10,31.20000,32.60000,31.20000,31.49000,14397
2025-10-13,31.01000,31.51000,30.01000,30.18000,48814
2025-10-14,30.87000,31.00000,29.85000,30.22000,71252
2025-10-15,29.75000,30.91000,29.63000,29.91000,40992
2025-10-16,30.05000,33.02000,30.05000,30.94000,141910
2025-10-17,30.53000,30.90000,29.40000,29.71000,75588
2025-10-20,29.11000,30.50000,29.11000,29.90000,25277
2025-10-21,30.20000,31.00000,29.00000,29.82000,16281
2025-10-23,29.42000,30.00000,29.42000,29.89000,11742
2025-10-24,29.63000,30.00000,29.50000,29.94000,24142
2025-10-27,29.56000,29.99000,29.02000,29.79000,37934
2025-10-28,29.30000,29.92000,29.27000,29.80000,31096
2025-10-29,29.80000,30.17000,29.43000,29.55000,18764
2025-10-30,29.19000,30.47000,29.19000,29.79000,31172
2025-10-31,29.33000,30.00000,29.00000,29.14000,19506
2025-11-03,29.20000,29.90000,29.19000,29.30000,11459
2025-11-04,29.39000,29.39000,27.35000,28.26000,25781
2025-11-06,28.30000,28.90000,28.03000,28.50000,27537
2025-11-07,27.50000,28.80000,27.05000,28.16000,36353
2025-11-10,27.17000,30.69000,27.17000,29.22000,28887
2025-11-11,29.36000,29.37000,28.40000,28.94000,12152
2025-11-12,28.93000,29.09000,28.41000,28.87000,7515
2025-11-13,28.25000,29.49000,28.00000,29.02000,111427
2025-11-14,29.49000,30.00000,28.60000,29.29000,22137
2025-11-17,30.00000,30.19000,29.50000,29.90000,25781
2025-11-18,29.70000,30.00000,29.19000,29.73000,38362
2025-11-19,30.50000,32.00000,29.25000,29.87000,123417
2025-11-20,30.50000,30.50000,29.16000,29.73000,84265
2025-11-21,29.17000,30.00000,28.30000,29.13000,96140
2025-11-24,28.30000,29.19000,28.00000,28.24000,32501
2025-11-25,27.33000,29.90000,27.33000,28.79000,168119
2025-11-26,30.85000,30.85000,28.20000,28.88000,110489
2025-11-27,29.94000,30.40000,28.31000,29.80000,66309
2025-11-28,30.10000,30.66000,29.30000,30.21000,15229
2025-12-01,29.90000,31.48000,29.19000,29.75000,22785
2025-12-02,29.02000,30.87000,29.02000,29.69000,41841
2025-12-03,30.59000,30.60000,29.26000,30.09000,36203
2025-12-04,30.92000,30.92000,29.95000,29.99000,34798
2025-12-05,30.79000,30.79000,29.55000,30.14000,27776
2025-12-08,30.01000,30.33000,29.26000,29.99000,34446
2025-12-09,29.80000,30.84000,29.80000,30.28000,118916
2025-12-10,30.90000,31.52000,30.21000,31.02000,36752
2025-12-11,31.29000,32.01000,30.80000,31.07000,26789
2025-12-12,31.91000,31.98000,30.95000,31.17000,38074
2025-12-15,30.60000,31.99000,30.00000,31.39000,97094
2025-12-16,30.66000,31.64000,30.66000,31.01000,23626
2025-12-17,31.26000,31.47000,30.55000,30.57000,23093
2025-12-18,31.75000,31.75000,30.19000,30.20000,26185
2025-12-19,31.06000,31.06000,30.50000,30.60000,15166
2025-12-22,31.08000,31.48000,30.60000,31.18000,38224
2025-12-23,31.70000,31.70000,30.65000,30.86000,26809
2025-12-24,31.00000,31.88000,30.90000,30.99000,25441
2025-12-26,31.61000,32.30000,30.90000,30.94000,66861
2025-12-29,31.56000,33.89000,31.50000,31.87000,80562
2025-12-30,31.40000,32.46000,30.89000,31.66000,14838
2025-12-31,33.20000,35.00000,31.29000,32.72000,113349
2026-01-01,32.72000,33.09000,31.50000,31.70000,34302
2026-01-02,33.00000,33.00000,31.50000,31.81000,18253
2026-01-05,31.70000,33.30000,31.40000,31.61000,21020
2026-01-06,33.25000,33.25000,31.10000,31.31000,7569
2026-01-07,31.30000,31.98000,30.90000,30.91000,17731
2026-01-08,32.01000,32.01000,30.80000,30.80000,19855
2026-01-09,32.32000,32.32000,30.90000,30.91000,22220
2026-01-12,30.91000,31.50000,29.20000,30.50000,15151
2026-01-13,30.63000,31.87000,30.50000,30.50000,21838
2026-01-14,32.98000,32.98000,30.47000,30.54000,33342
2026-01-16,31.15000,31.20000,29.25000,30.63000,8907
2026-01-19,30.69000,35.50000,30.18000,34.18000,299482
2026-01-20,34.29000,34.99000,30.30000,30.52000,99526
2026-01-21,29.20000,31.80000,29.20000,30.52000,38103
2026-01-22,33.50000,33.50000,30.51000,30.86000,12101
2026-01-23,30.86000,32.00000,30.50000,30.56000,23844
2026-01-27,30.56000,31.54000,30.50000,30.67000,37275
2026-01-28,30.51000,31.50000,30.51000,30.76000,18822
2026-01-29,29.40000,32.05000,29.40000,31.34000,84754
2026-01-30,31.90000,31.90000,30.00000,30.59000,107170
2026-02-02,29.45000,31.58000,29.45000,30.20000,46316
2026-02-03,29.25000,31.49000,29.25000,30.50000,27970
2026-02-04,31.26000,31.44000,30.25000,30.70000,106181
2026-02-05,30.15000,31.14000,30.10000,30.50000,46235
2026-02-06,30.49000,31.00000,29.50000,30.54000,20538
2026-02-09,30.54000,31.60000,29.78000,31.26000,19365
2026-02-10,31.51000,31.51000,30.71000,31.02000,18312
2026-02-11,30.55000,31.30000,30.50000,30.63000,45923
2026-02-12,31.48000,31.48000,30.41000,31.01000,25587
2026-02-13,31.39000,31.39000,30.16000,30.63000,27803
2026-02-16,31.50000,31.50000,29.65000,31.12000,64012
2026-02-17,31.51000,31.99000,30.80000,31.04000,31933
2026-02-18,30.26000,31.35000,30.26000,31.03000,23347
2026-02-19,30.30000,31.24000,30.30000,30.58000,30880
2026-02-20,30.70000,31.28000,30.61000,31.07000,318708
2026-02-23,31.19000,32.48000,30.70000,31.78000,283684
2026-02-24,32.45000,34.90000,31.50000,34.50000,300634
2026-02-25,36.70000,40.38000,35.50000,37.16000,747491
2026-02-26,37.50000,39.00000,35.20000,38.48000,193002
2026-02-27,38.50000,40.35000,34.05000,35.54000,270807
2026-03-02,35.50000,35.50000,32.25000,32.95000,129760
2026-03-04,32.10000,35.35000,32.10000,33.87000,57382
2026-03-05,34.79000,35.32000,32.32000,34.32000,51213
2026-03-06,35.34000,38.48000,34.98000,35.88000,227477
2026-03-09,35.87000,35.87000,33.75000,34.56000,38380
2026-03-10,36.80000,41.47000,35.03000,38.85000,418410
2026-03-11,38.85000,42.00000,36.76000,39.41000,428693
2026-03-12,39.80000,39.80000,35.10000,36.18000,504491
2026-03-13,36.18000,39.00000,35.60000,36.76000,130190
2026-03-16,35.72000,36.53000,34.20000,35.23000,207771
2026-03-17,35.26000,36.10000,34.11000,34.33000,85843
2026-03-18,34.84000,35.00000,34.00000,34.26000,59459
2026-03-19,33.90000,34.77000,33.50000,33.57000,83212
2026-03-20,33.31000,34.00000,32.91000,32.98000,61193
2026-03-23,32.90000,33.90000,29.10000,30.01000,347825
2026-03-24,29.80000,31.54000,29.80000,31.19000,115420
2026-03-25,30.80000,31.95000,30.80000,31.02000,66919
