date,open,high,low,close,volume
2025-03-21,27.70000,28.06000,27.05000,28.06000,98970
2025-03-24,29.40000,29.46000,28.50000,29.46000,15486
2025-03-25,30.93000,30.93000,30.93000,30.93000,44249
2025-03-26,31.54000,31.54000,30.31000,31.54000,119962
2025-03-27,32.17000,32.17000,32.17000,32.17000,30533
2025-03-28,32.81000,32.81000,32.81000,32.81000,28661
2025-04-01,33.46000,33.46000,33.46000,33.46000,16372
2025-04-02,34.12000,34.12000,34.12000,34.12000,30920
2025-04-03,34.80000,34.80000,34.80000,34.80000,22441
2025-04-04,35.49000,35.49000,35.49000,35.49000,37274
2025-04-07,36.19000,36.19000,36.19000,36.19000,155576
2025-04-08,36.91000,36.91000,36.91000,36.91000,36527
2025-04-09,37.64000,37.64000,37.64000,37.64000,46587
2025-04-11,38.39000,38.39000,38.39000,38.39000,30197
2025-04-15,39.15000,39.15000,39.15000,39.15000,31442
2025-04-16,39.93000,39.93000,39.93000,39.93000,23110
2025-04-17,40.72000,40.72000,40.72000,40.72000,21244
2025-04-21,39.90000,39.90000,39.90000,39.90000,281187
2025-04-22,39.10000,39.10000,39.10000,39.10000,272985
2025-04-23,38.31000,38.31000,38.31000,38.31000,29895
2025-04-24,37.54000,37.56000,37.54000,37.54000,523065
2025-04-25,36.78000,36.78000,36.78000,36.78000,62507
2025-04-28,36.04000,36.78000,36.04000,36.04000,261861
2025-04-29,35.31000,35.31000,35.31000,35.31000,49220
2025-04-30,34.60000,34.60000,34.60000,34.60000,23775
2025-05-02,33.90000,33.90000,33.90000,33.90000,8873
2025-05-05,32.50000,33.89000,32.20000,32.20000,864614
2025-05-06,30.59000,30.59000,30.59000,30.59000,124674
2025-05-07,29.06000,32.11000,29.06000,30.83000,364545
2025-05-08,32.37000,32.37000,31.89000,32.36000,199465
2025-05-09,31.00000,33.97000,30.74000,33.95000,161434
2025-05-12,35.64000,35.64000,35.38000,35.64000,135622
2025-05-13,37.42000,37.42000,37.42000,37.42000,87196
2025-05-14,39.29000,39.29000,35.60000,37.74000,1085952
2025-05-15,36.98000,36.98000,36.98000,36.98000,76078
2025-05-16,37.50000,37.50000,37.05000,37.50000,194376
2025-05-19,37.50000,37.50000,37.10000,37.50000,59507
2025-05-20,38.25000,38.25000,37.83000,38.25000,50707
2025-05-21,39.01000,39.01000,39.01000,39.01000,11730
2025-05-22,39.79000,39.79000,39.79000,39.79000,21454
2025-05-23,40.58000,40.58000,40.58000,40.58000,10670
2025-05-26,41.39000,41.39000,41.39000,41.39000,8638
2025-05-27,42.21000,42.21000,42.21000,42.21000,12604
2025-05-28,43.05000,43.05000,43.05000,43.05000,17800
2025-05-29,43.91000,43.91000,43.91000,43.91000,8293
2025-05-30,43.03000,44.78000,43.03000,43.03000,860078
2025-06-02,42.16000,42.16000,42.16000,42.16000,95544
2025-06-03,41.31000,41.31000,41.31000,41.31000,25827
2025-06-04,40.48000,40.48000,40.48000,40.48000,37980
2025-06-05,39.67000,39.67000,39.67000,39.67000,47978
2025-06-06,38.87000,38.87000,38.87000,38.87000,21615
2025-06-09,39.64000,39.64000,38.09000,39.64000,212381
2025-06-10,38.84000,38.84000,38.84000,38.84000,59702
2025-06-11,38.06000,38.06000,38.06000,38.06000,41232
2025-06-12,37.29000,37.29000,37.29000,37.29000,170845
2025-06-13,36.54000,36.54000,36.54000,36.54000,38358
2025-06-16,35.80000,35.80000,35.80000,35.80000,7095
2025-06-17,35.08000,35.08000,35.08000,35.08000,46973
2025-06-18,34.37000,35.78000,34.37000,34.37000,675387
2025-06-19,33.68000,33.68000,33.68000,33.68000,126661
2025-06-20,33.00000,33.00000,33.00000,33.00000,440710
2025-06-23,31.35000,31.35000,31.35000,31.35000,89928
2025-06-24,29.78000,32.91000,29.78000,31.71000,820012
2025-06-25,30.60000,32.40000,30.12000,31.83000,277473
2025-06-26,32.00000,32.90000,31.15000,31.33000,46820
2025-06-27,30.70000,32.89000,30.70000,32.88000,96552
2025-06-30,33.40000,34.52000,33.40000,34.52000,158910
2025-07-01,36.24000,36.24000,35.01000,35.15000,265582
2025-07-02,36.00000,36.00000,33.39000,33.75000,285130
2025-07-03,33.40000,34.25000,32.07000,32.14000,140776
2025-07-04,31.85000,32.50000,31.05000,32.07000,63461
2025-07-07,31.40000,32.69000,31.00000,32.11000,32457
2025-07-08,31.99000,32.70000,30.65000,32.00000,22583
2025-07-09,32.00000,32.90000,31.10000,31.42000,45210
2025-07-10,31.51000,32.45000,31.00000,31.22000,71143
2025-07-11,32.20000,32.20000,31.00000,31.75000,35786
2025-07-14,32.24000,32.24000,31.07000,31.57000,16558
2025-07-15,31.57000,32.10000,30.96000,31.93000,48930
2025-07-16,32.00000,33.52000,32.00000,33.52000,29399
2025-07-17,35.10000,35.19000,35.00000,35.19000,269257
2025-07-18,34.22000,36.94000,34.10000,36.94000,145115
2025-07-21,35.51000,38.00000,35.09000,35.92000,556017
2025-07-22,35.20000,35.20000,35.20000,35.20000,53617
2025-07-23,34.49000,34.49000,34.49000,34.49000,3055
2025-07-24,33.80000,33.80000,33.80000,33.80000,927
2025-07-25,33.12000,33.12000,33.12000,33.12000,25133
2025-07-28,32.45000,32.45000,32.45000,32.45000,17643
2025-07-29,33.09000,33.09000,32.45000,33.09000,95494
2025-07-30,33.05000,33.69000,33.00000,33.05000,14824
2025-07-31,33.45000,33.45000,33.00000,33.45000,17210
2025-08-01,33.60000,33.60000,33.60000,33.60000,24953
2025-08-04,34.27000,34.27000,33.00000,34.27000,14652
2025-08-05,34.88000,34.92000,34.88000,34.88000,13276
2025-08-06,34.18000,34.88000,34.18000,34.18000,1591
2025-08-07,33.49000,33.99000,33.49000,33.49000,118
2025-08-08,33.00000,33.49000,32.82000,33.00000,32051
2025-08-11,33.00000,33.00000,32.41000,33.00000,4094
2025-08-12,32.34000,33.00000,32.34000,32.34000,4823
2025-08-13,31.70000,32.50000,31.70000,31.70000,24098
2025-08-14,31.06000,31.11000,31.06000,31.06000,3650
2025-08-18,30.43000,31.21000,30.43000,30.43000,14696
2025-08-19,31.03000,31.03000,30.61000,31.03000,53106
2025-08-20,31.60000,31.65000,31.49000,31.60000,16197
2025-08-21,32.23000,32.23000,32.00000,32.23000,24766
2025-08-22,32.87000,32.87000,32.87000,32.87000,2601
2025-08-25,33.00000,33.52000,32.98000,33.00000,46052
2025-08-26,32.34000,32.34000,32.34000,32.34000,47021
2025-08-28,31.69000,31.75000,31.69000,31.69000,13156
2025-08-29,31.10000,31.60000,31.05000,31.10000,41353
2025-09-01,31.41000,32.20000,29.63000,31.16000,49878
2025-09-02,30.15000,31.52000,30.00000,30.17000,27743
2025-09-03,30.00000,30.68000,29.15000,30.18000,34576
2025-09-04,29.95000,30.90000,29.20000,29.53000,30932
2025-09-05,29.57000,30.00000,29.00000,29.61000,16345
2025-09-08,29.61000,31.07000,29.50000,30.27000,8810
2025-09-09,29.80000,30.87000,29.26000,30.00000,47216
2025-09-10,29.51000,31.00000,29.40000,30.50000,23235
2025-09-11,29.90000,31.00000,29.50000,30.60000,20208
2025-09-12,30.26000,31.41000,30.21000,31.03000,16174
2025-09-15,32.50000,37.23000,32.50000,33.97000,898722
2025-09-16,34.00000,35.99000,33.60000,34.87000,149365
2025-09-17,35.00000,35.00000,32.20000,32.85000,112132
2025-09-18,32.80000,36.18000,32.26000,34.50000,132921
2025-09-19,34.49000,35.95000,33.00000,34.79000,65706
2025-09-22,35.45000,35.45000,33.01000,33.13000,36939
2025-09-23,33.00000,34.60000,32.49000,32.86000,572020
2025-09-24,33.50000,33.90000,32.00000,32.20000,57140
2025-09-25,33.01000,33.06000,31.30000,32.03000,36075
2025-09-26,32.03000,33.03000,31.20000,31.38000,23145
2025-09-29,30.55000,33.00000,30.55000,30.93000,57589
2025-09-30,30.55000,31.95000,30.55000,30.96000,28094
2025-10-01,30.10000,31.09000,29.20000,30.55000,38738
2025-10-03,29.50000,33.50000,29.50000,33.10000,85307
2025-10-06,32.51000,33.79000,32.50000,32.52000,37376
2025-10-07,32.10000,33.00000,32.01000,32.26000,35119
2025-10-08,32.98000,33.00000,31.00000,31.57000,46363
2025-10-09,31.52000,33.43000,31.01000,31.92000,29561
2025-10-10,31.20000,32.60000,31.20000,31.49000,14397
2025-10-13,31.01000,31.51000,30.01000,30.18000,48814
2025-10-14,30.87000,31.00000,29.85000,30.22000,71252
2025-10-15,29.75000,30.91000,29.63000,29.91000,40992
2025-10-16,30.05000,33.02000,30.05000,30.94000,141910
2025-10-17,30.53000,30.90000,29.40000,29.71000,75588
2025-10-20,29.11000,30.50000,29.11000,29.90000,25277
2025-10-21,30.20000,31.00000,29.00000,29.82000,16281
2025-10-23,29.42000,30.00000,29.42000,29.89000,11742
2025-10-24,29.63000,30.00000,29.50000,29.94000,24142
2025-10-27,29.56000,29.99000,29.02000,29.79000,37934
2025-10-28,29.30000,29.92000,29.27000,29.80000,31096
2025-10-29,29.80000,30.17000,29.43000,29.55000,18764
2025-10-30,29.19000,30.47000,29.19000,29.79000,31172
2025-10-31,29.33000,30.00000,29.00000,29.14000,19506
2025-11-03,29.20000,29.90000,29.19000,29.30000,11459
2025-11-04,29.39000,29.39000,27.35000,28.26000,25781
2025-11-06,28.30000,28.90000,28.03000,28.50000,27537
2025-11-07,27.50000,28.80000,27.05000,28.16000,36353
2025-11-10,27.17000,30.69000,27.17000,29.22000,28887
2025-11-11,29.36000,29.37000,28.40000,28.94000,12152
2025-11-12,28.93000,29.09000,28.41000,28.87000,7515
2025-11-13,28.25000,29.49000,28.00000,29.02000,111427
2025-11-14,29.49000,30.00000,28.60000,29.29000,22137
2025-11-17,30.00000,30.19000,29.50000,29.90000,25781
2025-11-18,29.70000,30.00000,29.19000,29.73000,38362
2025-11-19,30.50000,32.00000,29.25000,29.87000,123417
2025-11-20,30.50000,30.50000,29.16000,29.73000,84265
2025-11-21,29.17000,30.00000,28.30000,29.13000,96140
2025-11-24,28.30000,29.19000,28.00000,28.24000,32501
2025-11-25,27.33000,29.90000,27.33000,28.79000,168119
2025-11-26,30.85000,30.85000,28.20000,28.88000,110489
2025-11-27,29.94000,30.40000,28.31000,29.80000,66309
2025-11-28,30.10000,30.66000,29.30000,30.21000,15229
2025-12-01,29.90000,31.48000,29.19000,29.75000,22785
2025-12-02,29.02000,30.87000,29.02000,29.69000,41841
2025-12-03,30.59000,30.60000,29.26000,30.09000,36203
2025-12-04,30.92000,30.92000,29.95000,29.99000,34798
2025-12-05,30.79000,30.79000,29.55000,30.14000,27776
2025-12-08,30.01000,30.33000,29.26000,29.99000,34446
2025-12-09,29.80000,30.84000,29.80000,30.28000,118916
2025-12-10,30.90000,31.52000,30.21000,31.02000,36752
2025-12-11,31.29000,32.01000,30.80000,31.07000,26789
2025-12-12,31.91000,31.98000,30.95000,31.17000,38074
2025-12-15,30.60000,31.99000,30.00000,31.39000,97094
2025-12-16,30.66000,31.64000,30.66000,31.01000,23626
2025-12-17,31.26000,31.47000,30.55000,30.57000,23093
2025-12-18,31.75000,31.75000,30.19000,30.20000,26185
2025-12-19,31.06000,31.06000,30.50000,30.60000,15166
2025-12-22,31.08000,31.48000,30.60000,31.18000,38224
2025-12-23,31.70000,31.70000,30.65000,30.86000,26809
2025-12-24,31.00000,31.88000,30.90000,30.99000,25441
2025-12-26,31.61000,32.30000,30.90000,30.94000,66861
2025-12-29,31.56000,33.89000,31.50000,31.87000,80562
2025-12-30,31.40000,32.46000,30.89000,31.66000,14838
2025-12-31,33.20000,35.00000,31.29000,32.72000,113349
2026-01-01,32.72000,33.09000,31.50000,31.70000,34302
2026-01-02,33.00000,33.00000,31.50000,31.81000,18253
2026-01-05,31.70000,33.30000,31.40000,31.61000,21020
2026-01-06,33.25000,33.25000,31.10000,31.31000,7569
2026-01-07,31.30000,31.98000,30.90000,30.91000,17731
2026-01-08,32.01000,32.01000,30.80000,30.80000,19855
2026-01-09,32.32000,32.32000,30.90000,30.91000,22220
2026-01-12,30.91000,31.50000,29.20000,30.50000,15151
2026-01-13,30.63000,31.87000,30.50000,30.50000,21838
2026-01-14,32.98000,32.98000,30.47000,30.54000,33342
2026-01-16,31.15000,31.20000,29.25000,30.63000,8907
2026-01-19,30.69000,35.50000,30.18000,34.18000,299482
2026-01-20,34.29000,34.99000,30.30000,30.52000,99526
2026-01-21,29.20000,31.80000,29.20000,30.52000,38103
2026-01-22,33.50000,33.50000,30.51000,30.86000,12101
2026-01-23,30.86000,32.00000,30.50000,30.56000,23844
2026-01-27,30.56000,31.54000,30.50000,30.67000,37275
2026-01-28,30.51000,31.50000,30.51000,30.76000,18822
2026-01-29,29.40000,32.05000,29.40000,31.34000,84754
2026-01-30,31.90000,31.90000,30.00000,30.59000,107170
2026-02-02,29.45000,31.58000,29.45000,30.20000,46316
2026-02-03,29.25000,31.49000,29.25000,30.50000,27970
2026-02-04,31.26000,31.44000,30.25000,30.70000,106181
2026-02-05,30.15000,31.14000,30.10000,30.50000,46235
2026-02-06,30.49000,31.00000,29.50000,30.54000,20538
2026-02-09,30.54000,31.60000,29.78000,31.26000,19365
2026-02-10,31.51000,31.51000,30.71000,31.02000,18312
2026-02-11,30.55000,31.30000,30.50000,30.63000,45923
2026-02-12,31.48000,31.48000,30.41000,31.01000,25587
2026-02-13,31.39000,31.39000,30.16000,30.63000,27803
2026-02-16,31.50000,31.50000,29.65000,31.12000,64012
2026-02-17,31.51000,31.99000,30.80000,31.04000,31933
2026-02-18,30.26000,31.35000,30.26000,31.03000,23347
2026-02-19,30.30000,31.24000,30.30000,30.58000,30880
2026-02-20,30.70000,31.28000,30.61000,31.07000,318708
2026-02-23,31.19000,32.48000,30.70000,31.78000,283684
2026-02-24,32.45000,34.90000,31.50000,34.50000,300634
2026-02-25,36.70000,40.38000,35.50000,37.16000,747491
2026-02-26,37.50000,39.00000,35.20000,38.48000,193002
2026-02-27,38.50000,40.35000,34.05000,35.54000,270807
2026-03-02,35.50000,35.50000,32.25000,32.95000,129760
2026-03-04,32.10000,35.35000,32.10000,33.87000,57382
2026-03-05,34.79000,35.32000,32.32000,34.32000,51213
2026-03-06,35.34000,38.48000,34.98000,35.88000,227477
2026-03-09,35.87000,35.87000,33.75000,34.56000,38380
2026-03-10,36.80000,41.47000,35.03000,38.85000,418410
2026-03-11,38.85000,42.00000,36.76000,39.41000,428693
2026-03-12,39.80000,39.80000,35.10000,36.18000,504491
2026-03-13,36.18000,39.00000,35.60000,36.76000,130190
2026-03-16,35.72000,36.53000,34.20000,35.23000,207771
2026-03-17,35.26000,36.10000,34.11000,34.33000,85843
2026-03-18,34.84000,35.00000,34.00000,34.26000,59459
2026-03-19,33.90000,34.77000,33.50000,33.57000,83212
2026-03-20,33.31000,34.00000,32.91000,32.98000,61193
2026-03-23,32.90000,33.90000,29.10000,30.01000,347825
2026-03-24,29.80000,31.54000,29.80000,31.19000,115420
2026-03-25,30.80000,31.95000,30.80000,31.02000,66919
2026-03-27,31.02000,31.78000,30.40000,30.46000,76320
2026-03-30,30.90000,32.00000,28.56000,29.75000,97814
